time,raw,transformed
6090,-0.339121222496033,0
6190,-0.338914066553116,0
6300,-0.339121222496033,0
6410,-0.340157032012939,0
6520,-0.338706910610199,0
6620,-0.340571343898773,0
6730,-0.339535564184189,100
6840,-0.338914066553116,71.8748314121815
6950,-0.339742720127106,69.4441946847129
7060,-0.33932837843895,69.9998201729922
7170,-0.339121222496033,71.5907660466979
7280,-0.339121222496033,72.9165542747865
7390,-0.33932837843895,73.0768539126904
7500,-0.340157032012939,69.6427608069623
7610,-0.340985685586929,70.6668392987306
7720,-0.339742720127106,70.0001438600529
7830,-0.341192841529846,68.4492538105697
7940,-0.34077849984169,65.6566647339968
8040,-0.33932837843895,66.5072959264093
8150,-0.339742720127106,66.3637314779688
8260,-0.340571343898773,64.5022833950808
8370,-0.339535564184189,64.8761195254261
8480,-0.339121222496033,66.0079981849703
8590,-0.340157032012939,65.1516092750742
8700,-0.339949876070023,64.7273583301733
8810,-0.340985685586929,62.5874857522854
8920,-0.339949876070023,62.2896283411829
9030,-0.340157032012939,61.6883796271209
9140,-0.338914066553116,63.0094699848071
9250,-0.339121222496033,63.9394652751438
9350,-0.340571343898773,62.7566864513421
9460,-0.340157032012939,62.2159982605966
9570,-0.340157032012939,61.7080790511067
9680,-0.339121222496033,62.5669393347497
9790,-0.340157032012939,62.0780171922558
9900,-0.338706910610199,58.1020572086221
10010,-0.338499754667282,54.885935567615
10120,-0.339535564184189,55.06099532015
10230,-0.338914066553116,55.8188089046268
10340,-0.339121222496033,56.3464283738165
10450,-0.340985685586929,55.1597383511046
10560,-0.339121222496033,55.6779252397016
10670,-0.338292598724365,52.8242445851302
10770,-0.340157032012939,52.4353885561197
10880,-0.340364187955856,51.9050881207164
10990,-0.340157032012939,51.5531205378451
11100,-0.339949876070023,51.3681028594726
11210,-0.338499754667282,52.232460917697
11320,-0.339742720127106,52.1869004908054
11430,-0.33932837843895,52.4288914464212
11540,-0.340571343898773,51.8210535478122
11650,-0.340157032012939,51.5113136585967
11760,-0.340157032012939,51.2132620670874
11870,-0.340571343898773,50.6617045957952
11980,-0.339121222496033,51.039294668914
12080,-0.341192841529846,50.1278786926825
12190,-0.34077849984169,49.4990816677521
12300,-0.338914066553116,50.0003366211184
12410,-0.341192841529846,49.1528732885556
12520,-0.341399997472763,51.666906435721
12630,-0.33932837843895,51.9128146261324
12740,-0.339949876070023,51.8282003677278
12850,-0.340364187955856,51.5346361241998
12960,-0.340157032012939,51.354410431872
13070,-0.338706910610199,51.8976798470791
13180,-0.339535564184189,52.0204393673476
13290,-0.339949876070023,51.9405332664167
13400,-0.340157032012939,51.7649400097826
13500,-0.340571343898773,51.4012034043591
13610,-0.339535564184189,51.5240406155072
13720,-0.340157032012939,51.3617328859258
13830,-0.339535564184189,51.4817061539662
13940,-0.340364187955856,51.2331026864515
14050,-0.33932837843895,51.4416730021867
14160,-0.339535564184189,51.5557814712863
14270,-0.339742720127106,51.5791694702824
14380,-0.339742720127106,51.6019499887831
14490,-0.339742720127106,51.6241463914259
14600,-0.339742720127106,51.6457808598249
14710,-0.340364187955856,51.4168792618953
14810,-0.339949876070023,51.3582354513166
14920,-0.34077849984169,50.9758249634435
15030,-0.338914066553116,51.3255184413609
15140,-0.338914066553116,51.6668858840872
15250,-0.340571343898773,51.3727709235169
15360,-0.33932837843895,51.5506143552306
15470,-0.341192841529846,51.0347054406856
15580,-0.340571343898773,50.7578009951727
15690,-0.33932837843895,50.9365594789438
15800,-0.339535564184189,51.037262242342
15910,-0.338706910610199,51.4287969695713
16020,-0.339949876070023,51.3770353786545
16130,-0.338914066553116,51.6848133168462
16230,-0.338292598724365,52.1988046645383
16340,-0.33932837843895,52.3511046791315
16450,-0.340364187955856,52.1530062244046
16560,-0.338706910610199,52.5088197934345
16670,-0.340157032012939,52.3811807324326
16780,-0.339121222496033,52.592823804233
16890,-0.341192841529846,52.1335609540887
17000,-0.339742720127106,52.1454392554841
17110,-0.339535564184189,52.2224428724374
17220,-0.339949876070023,52.1685039183844
17330,-0.33932837843895,52.3079154773514
17440,-0.339949876070023,52.2541899071385
17540,-0.33932837843895,52.3901627009472
17650,-0.340364187955856,52.2120644796797
17760,-0.339121222496033,52.4076365200603
17870,-0.340157032012939,52.293806752125
17980,-0.340985685586929,51.9396183051022
18090,-0.33932837843895,52.0723001766859
18200,-0.339535564184189,52.1430814981869
18310,-0.339742720127106,52.1536141344409
18420,-0.339535564184189,52.2224403980403
18530,-0.340364187955856,52.0581900730606
18640,-0.33932837843895,52.184130728042
18750,-0.339121222496033,52.3648975153289
18860,-0.340364187955856,52.2036157823625
18960,-0.341192841529846,51.8209512698212
19070,-0.339535564184189,51.8891084107789
19180,-0.339949876070023,51.8459482636245
19290,-0.342021465301514,51.2570501928614
19400,-0.339949876070023,51.2197305214163
19510,-0.338914066553116,51.4518325626185
19620,-0.33932837843895,51.5735563505225
19730,-0.340157032012939,51.4817042510373
19840,-0.339742720127106,51.4962835041378
19950,-0.340364187955856,51.3543879535232
20060,-0.33932837843895,51.3023056192276
20170,-0.339742720127106,51.0939687892622
20270,-0.340571343898773,50.72938495641
20380,-0.339949876070023,50.7814672907056
20490,-0.339949876070023,50.468965792149
20600,-0.339121222496033,50.8335496250012
20710,-0.33932837843895,50.8856394520798
20820,-0.339535564184189,50.72938495641
20930,-0.340157032012939,50.6252202878188
21040,-0.338914066553116,50.72938495641
21150,-0.340571343898773,50.3648011235578
21260,-0.338085442781448,50.6252127950358
21370,-0.340364187955856,50.3647936307748
21480,-0.339742720127106,50.4689582993661
21590,-0.339742720127106,50.7814597979226
21690,-0.339949876070023,50.729377463627
21800,-0.33932837843895,51.1981334578534
21910,-0.340364187955856,51.3022981264446
22020,-0.339121222496033,51.3543804607402
22130,-0.339949876070023,51.3022981264446
22240,-0.339535564184189,51.5627097979226
22350,-0.340157032012939,51.4064627950358
22460,-0.340157032012939,51.1460436307748
22570,-0.340157032012939,51.1460436307748
22680,-0.340157032012939,51.0939612964792
22790,-0.339742720127106,51.4064627950358
22900,-0.340157032012939,51.3543804607402
23000,-0.340157032012939,51.3543804607402
23110,-0.339535564184189,51.1981259650704
23220,-0.340364187955856,50.8856244665139
23330,-0.339742720127106,51.0939538036963
23440,-0.339742720127106,51.1981184722875
23550,-0.340571343898773,51.0939538036963
23660,-0.340157032012939,50.8335346394353
23770,-0.339949876070023,50.8856169737309
23880,-0.340571343898773,50.4168684722875
23990,-0.340157032012939,50.0002023051397
24100,-0.33932837843895,50.0522921322182
24210,-0.340157032012939,49.7397906336617
24320,-0.340571343898773,49.3752068008095
24420,-0.339535564184189,49.7397906336617
24530,-0.338914066553116,49.7918729679573
24640,-0.340364187955856,49.2710421322182
24750,-0.340571343898773,49.166877463627
24860,-0.339121222496033,49.4793789621836
24970,-0.34077849984169,49.3231319592968
25080,-0.340364187955856,49.2189672907056
25190,-0.340364187955856,48.7502187892622
25300,-0.339949876070023,48.6981364549666
25410,-0.339535564184189,48.646046627888
25520,-0.340571343898773,48.646046627888
25630,-0.339742720127106,48.7502112964792
25730,-0.340571343898773,48.646046627888
25840,-0.339535564184189,48.9064582993661
25950,-0.339535564184189,48.8022861379919
26060,-0.339949876070023,49.1147876365485
26170,-0.339949876070023,49.3231169737309
26280,-0.339949876070023,49.0626978094699
26390,-0.339535564184189,49.4793639766177
26500,-0.339949876070023,49.8439478094699
26610,-0.340157032012939,49.6356109795045
26720,-0.340157032012939,49.5835286452089
26830,-0.339949876070023,49.6876933138001
26940,-0.340157032012939,49.6876933138001
27050,-0.340157032012939,49.3231094809479
27150,-0.339949876070023,49.2189448123567
27260,-0.340985685586929,48.9585256480958
27370,-0.338914066553116,49.2710271466523
27480,-0.339742720127106,49.4793564838348
27590,-0.339742720127106,49.4272741495392
27700,-0.33932837843895,49.6356109795045
27810,-0.340364187955856,49.4272816423221
27920,-0.338914066553116,49.7918654751743
28030,-0.339949876070023,49.6356109795045
28140,-0.340157032012939,49.4793639766177
28250,-0.340571343898773,49.2710346394353
28360,-0.340985685586929,48.9585331408787
28460,-0.340364187955856,48.8022861379919
28570,-0.340571343898773,48.5939568008095
28680,-0.340157032012939,48.6460391351051
28790,-0.339949876070023,48.6460391351051
28900,-0.339742720127106,48.9064508065831
29010,-0.340571343898773,48.4897846394353
29120,-0.338914066553116,48.4897846394353
29230,-0.339121222496033,48.8543684722875
29340,-0.338914066553116,48.9585331408787
29450,-0.340985685586929,49.0106154751743
29560,-0.340157032012939,49.1147801437655
29670,-0.339535564184189,49.062690316687
29780,-0.340571343898773,48.8022786452089
29880,-0.34077849984169,48.2814478094699
29990,-0.339535564184189,48.3856124780611
30210,-0.33932837843895,47.8647816423221

30100,-0.339949876070023,48.1251933138001
30320,-0.33932837843895,47.8647816423221
30430,-0.34077849984169,47.7606169737309
30540,-0.340157032012939,47.396033140878730650,-0.34077849984169,47.2397861379919
30760,-0.340985685586929,46.7710301437655
30870,-0.339742720127106,47.1356139766177
30980,-0.34077849984169,46.8752023051397
31090,-0.340157032012939,46.7189553022529
31190,-0.339742720127106,46.7710376365485
31300,-0.34077849984169,46.4064538036963
31410,-0.341814309358597,45.9377053022529
31410,-0.341814309358597,45.9377053022529
31520,-0.338706910610199,46.0939523051397
31630,-0.339949876070023,46.1981169737309
31740,-0.340157032012939,45.9376978094699
31850,-0.341399997472763,45.6251963109133
31960,-0.340157032012939,45.8335331408787
32070,-0.339742720127106,45.7293609795045
32180,-0.340364187955856,45.5210316423221
32290,-0.340157032012939,45.4168669737309
32400,-0.338499754667282,45.6772861379919
32510,-0.341192841529846,45.4689493080265
32610,-0.338914066553116,45.5731139766177
32720,-0.339742720127106,45.4168594809479
32830,-0.33932837843895,45.6772786452089
32940,-0.339742720127106,46.0418624780611
33050,-0.340364187955856,45.8335331408787
33160,-0.340157032012939,45.7814508065831
33270,-0.340157032012939,46.2501993080265
33380,-0.339949876070023,46.2501993080265
33490,-0.340157032012939,45.9376978094699
33600,-0.340157032012939,45.7293609795045
34140,-0.339742720127106,45.0522831408787
33710,-0.340571343898773,45.6251963109133
34140,-0.339742720127106,45.0522831408787
33710,-0.340571343898773,45.6251963109133
33820,-0.34077849984169,45.3647846394353
34250,-0.340157032012939,45.1564478094699
34360,-0.34077849984169,44.9481184722875

33820,-0.34077849984169,45.3647846394353
33920,-0.340364187955856,45.3647846394353
34250,-0.340157032012939,45.1564478094699
34580,-0.340571343898773,44.6876993080265
34580,-0.340571343898773,44.6876993080265
34360,-0.34077849984169,44.9481184722875
34580,-0.340571343898773,44.6876993080265
34360,-0.34077849984169,44.9481184722875

33820,-0.34077849984169,45.3647846394353
33920,-0.340364187955856,45.3647846394353
34030,-0.340571343898773,45.0522831408787
34580,-0.340571343898773,44.6876993080265
34580,-0.340571343898773,44.6876993080265
34690,-0.339949876070023,44.5314448123567
34800,-0.340985685586929,44.1668609795045
34910,-0.340157032012939,44.1668609795045
35020,-0.339949876070023,43.9064418152436
35130,-0.340571343898773,43.9064418152436
35240,-0.339949876070023,43.4376933138001
35340,-0.340985685586929,43.2814388181304
35450,-0.34077849984169,43.0210271466523
35560,-0.339949876070023,42.9689448123567
35670,-0.340364187955856,42.8647801437655
35780,-0.339742720127106,42.7606079823914
35890,-0.341192841529846,42.552271152426
36000,-0.340364187955856,42.2397696538694
36110,-0.34077849984169,42.031440316687
36220,-0.339949876070023,41.9272756480958
36330,-0.33932837843895,42.1356124780611
36440,-0.340571343898773,42.0314478094699
36550,-0.339121222496033,42.2918669737309
36650,-0.340364187955856,42.2397846394353
36760,-0.339535564184189,42.2918669737309
36870,-0.340364187955856,42.2397846394353
36980,-0.339949876070023,42.2918669737309
37090,-0.339949876070023,42.1877023051397
37200,-0.340985685586929,42.0314478094699
37310,-0.34077849984169,41.7710361379919
37420,-0.34077849984169,41.5106244665139
37530,-0.340157032012939,41.6147891351051
37640,-0.339742720127106,41.7189538036963
37750,-0.339949876070023,41.7189538036963
37860,-0.339742720127106,41.9272831408787
37970,-0.339742720127106,42.0314478094699
38070,-0.339949876070023,41.8751933138001
38180,-0.33932837843895,42.0835301437655
38290,-0.339949876070023,42.2397771466523
38400,-0.339742720127106,42.1876948123567
38510,-0.340157032012939,41.8751933138001
38620,-0.33932837843895,42.1356124780611
38730,-0.338914066553116,42.5522786452089
38840,-0.340571343898773,42.1876948123567
38950,-0.339742720127106,42.4481064838348
39060,-0.340364187955856,42.4481064838348
39170,-0.339949876070023,42.552271152426
39280,-0.339949876070023,42.552271152426
39380,-0.341192841529846,42.1356049852782
39490,-0.339121222496033,42.5001888181304
39600,-0.340985685586929,42.1876873195738
39710,-0.339535564184189,42.4480989910518
39820,-0.34077849984169,42.1356049852782
39930,-0.34077849984169,41.8231109795045
40040,-0.340571343898773,41.6668639766177
40150,-0.339949876070023,41.6668639766177
40260,-0.339949876070023,41.6668639766177
40370,-0.339742720127106,41.6147816423221
40480,-0.340364187955856,41.5106169737309
40590,-0.340571343898773,41.4064523051397
40700,-0.340571343898773,41.3022876365485
40800,-0.340571343898773,41.1460406336617
40910,-0.339742720127106,41.2502053022529
41020,-0.340571343898773,41.1460406336617
41130,-0.340571343898773,40.9897936307748
41240,-0.340157032012939,41.1981304607402
41350,-0.341192841529846,40.6252097979226
41460,-0.340364187955856,40.4689627950358
41570,-0.341399997472763,40.052296627888
41680,-0.340364187955856,39.791877463627
41790,-0.34077849984169,39.6877127950358
41900,-0.340985685586929,39.1668744665139
42010,-0.340571343898773,39.010627463627
42110,-0.339742720127106,39.1147921322182
42220,-0.341192841529846,38.9585376365485
42330,-0.340157032012939,39.1668744665139
42440,-0.340985685586929,39.0106199708441
42550,-0.339535564184189,39.2710316423221
42660,-0.340985685586929,39.0626948123567
42770,-0.341192841529846,38.7501933138001
42880,-0.340157032012939,38.6460286452089
42990,-0.340364187955856,38.6981109795045
43100,-0.339535564184189,38.5418564838348
43210,-0.339535564184189,38.4376843224606
43320,-0.339535564184189,38.2814298267908
43430,-0.339535564184189,38.646013659643
43530,-0.341399997472763,38.3335121610864
43640,-0.340985685586929,37.9689283282342
43750,-0.340157032012939,38.0730929968255
43860,-0.34077849984169,38.0730929968255
43970,-0.340364187955856,37.864763659643
44080,-0.339535564184189,37.9689283282342
44190,-0.341192841529846,37.5001723340079
44300,-0.340571343898773,37.1876708354513
44410,-0.340364187955856,37.2918355040425
44520,-0.34077849984169,37.1355885011557
44630,-0.339742720127106,37.3960001726337
44740,-0.340157032012939,37.6043370025991
44850,-0.340985685586929,37.2918355040425
44950,-0.339742720127106,37.5522471755205
45060,-0.341399997472763,37.2397456769639
45170,-0.34077849984169,36.9793340054859
45280,-0.340364187955856,37.0834986740771
45390,-0.340985685586929,37.2918280112596
45500,-0.340985685586929,36.718907348442
45610,-0.339949876070023,36.718907348442
45720,-0.340364187955856,36.6668250141464
45830,-0.340364187955856,36.9272441784074
45940,-0.339742720127106,37.0314088469986
46050,-0.339742720127106,37.0314088469986
46160,-0.34077849984169,36.9272441784074
46260,-0.340571343898773,36.8230795098161
46370,-0.339949876070023,36.4584956769639
46480,-0.340985685586929,36.5105780112596
46590,-0.340364187955856,36.1459941784074
46700,-0.339742720127106,36.1459941784074
46810,-0.33932837843895,36.1459941784074
46920,-0.340571343898773,35.9376648412249
47030,-0.339949876070023,36.0418295098161
47140,-0.340364187955856,35.9897471755205
47250,-0.341192841529846,35.7293280112596
47360,-0.340571343898773,35.5730810083727
47470,-0.341192841529846,35.3126618441118
47580,-0.340364187955856,35.2605795098161
47680,-0.339742720127106,35.4689088469986
47790,-0.340571343898773,35.5209911812942
47900,-0.340364187955856,35.5209911812942
48010,-0.339949876070023,35.677238184181
48120,-0.339121222496033,35.8334926798508
48230,-0.339949876070023,35.8855750141464
48340,-0.340157032012939,36.0418220170332
48450,-0.340571343898773,35.7814103455552
48560,-0.340571343898773,35.7814103455552
48670,-0.339742720127106,35.8334926798508
48780,-0.340985685586929,35.8334926798508
48890,-0.34077849984169,35.6772456769639
48990,-0.340364187955856,35.5730810083727
49100,-0.338292598724365,36.1459941784074
49210,-0.340571343898773,35.9897471755205
49320,-0.34160715341568,35.8335001726337
49430,-0.338499754667282,36.4064133426683
49540,-0.340571343898773,36.2501663397815
49650,-0.339535564184189,36.4584956769639
49760,-0.341192841529846,36.0939118441118
49870,-0.339742720127106,36.4584956769639
49980,-0.340364187955856,36.4584956769639
50090,-0.339535564184189,36.7709896827376
50200,-0.340364187955856,36.6668250141464
50310,-0.340571343898773,36.3543235155898
50410,-0.340157032012939,36.458488184181
50520,-0.339949876070023,36.2501513542156
50630,-0.339949876070023,36.3543160228068
50740,-0.34077849984169,36.0418220170332
50850,-0.340364187955856,36.0418220170332
50960,-0.340571343898773,35.8855750141464
51070,-0.34077849984169,35.6772456769639
51180,-0.340985685586929,35.6772456769639
51290,-0.340571343898773,35.7293280112596
51400,-0.33932837843895,36.0939118441118
51510,-0.340157032012939,36.0939118441118
51620,-0.339949876070023,36.0418295098161
51720,-0.341814309358597,35.5730810083727
51830,-0.34077849984169,35.3126693368947
51940,-0.340157032012939,35.2085046683035
52050,-0.339121222496033,35.4168414982689
52160,-0.340157032012939,35.2085046683035
52270,-0.339742720127106,35.2605870025991
52380,-0.339742720127106,35.2605870025991
52490,-0.340364187955856,35.2085046683035
52600,-0.340571343898773,34.8960031697469
52710,-0.341399997472763,34.2710001726337
52820,-0.34160715341568,34.0105810083727
52930,-0.340985685586929,33.6980795098161
53040,-0.341399997472763,33.4376603455552
53140,-0.340571343898773,33.2814133426683
53250,-0.339535564184189,33.3855780112596
53360,-0.340571343898773,33.5418325069293
53470,-0.340364187955856,33.2293310083727
53580,-0.34077849984169,33.2814208354513
53690,-0.339535564184189,33.2814208354513
53800,-0.340157032012939,33.4376678383381
53910,-0.340157032012939,33.5939148412249
54020,-0.339742720127106,33.8022441784074
54130,-0.340571343898773,33.6459971755205
54240,-0.340985685586929,33.3855780112596
54350,-0.33932837843895,33.4897501726337
54450,-0.340364187955856,33.4897501726337
54560,-0.341192841529846,33.3334956769639
54670,-0.341814309358597,33.0209941784074
54780,-0.338085442781448,33.6459896827376
54890,-0.339949876070023,33.593907348442
55000,-0.340364187955856,33.6459896827376
55110,-0.340571343898773,33.6459896827376
55220,-0.339949876070023,33.6980720170332
55330,-0.339949876070023,34.0105735155898
55440,-0.339535564184189,34.2189028527722
55550,-0.340571343898773,34.4272396827376
55660,-0.340157032012939,34.4793220170332
55770,-0.340364187955856,34.5834866856244
55870,-0.339742720127106,34.895988184181
55980,-0.34077849984169,34.8439058498854
56090,-0.341814309358597,34.3230750141464
56200,-0.339949876070023,34.635576512703
56310,-0.340571343898773,34.5314118441118
56420,-0.339949876070023,34.7918310083727
56530,-0.341192841529846,34.3751648412249
56640,-0.34077849984169,34.4272546683035
56750,-0.340985685586929,34.4793370025991
56860,-0.339949876070023,34.5314193368947
56970,-0.339742720127106,34.6876663397815
57080,-0.340157032012939,34.5314193368947
57180,-0.340571343898773,34.2710076654167
57290,-0.34077849984169,33.958513659643
57400,-0.34077849984169,33.6460196538694
57510,-0.340364187955856,33.9064388181304
57620,-0.340157032012939,34.1147756480958
57730,-0.339742720127106,34.218940316687
57840,-0.340985685586929,34.1668504896084
57950,-0.338499754667282,34.6355989910518
58060,-0.339742720127106,34.5835166567562
58170,-0.339742720127106,34.9481004896084
58280,-0.339535564184189,35.2085121610864
58390,-0.339949876070023,35.3126768296777
58500,-0.339742720127106,35.5730885011557
58600,-0.34160715341568,35.1043399997123
58710,-0.340985685586929,34.8960031697469
58820,-0.340364187955856,35.0522576654167
58930,-0.339949876070023,35.0001753311211
59040,-0.340157032012939,35.3126768296777
59150,-0.34160715341568,35.1043399997123
59260,-0.340364187955856,35.1043399997123
59370,-0.340364187955856,35.260594495382
59480,-0.340364187955856,35.4168489910518
59590,-0.34077849984169,35.2085196538694
59700,-0.34077849984169,35.1043549852782
59810,-0.340571343898773,35.0522726509826
59910,-0.338914066553116,35.2606094809479
60020,-0.340571343898773,35.0522801437655
60130,-0.339742720127106,35.3126918152436
60240,-0.34077849984169,35.2606094809479
60350,-0.34077849984169,35.0522801437655
60460,-0.339742720127106,35.3647816423221
60570,-0.340571343898773,35.3126993080265
60680,-0.339742720127106,35.3126993080265
60790,-0.340364187955856,35.0522801437655
60900,-0.341192841529846,34.8960256480958
61010,-0.339949876070023,34.8960256480958
61120,-0.339742720127106,35.0522726509826
61230,-0.340571343898773,35.2085271466523
61330,-0.340364187955856,35.2606094809479
61440,-0.340157032012939,35.5210286452089
61550,-0.340571343898773,35.4689463109133
61660,-0.34077849984169,35.2085346394353
61770,-0.340364187955856,35.2606169737309
61880,-0.339949876070023,35.3647816423221
61990,-0.340571343898773,35.2085346394353
62100,-0.340157032012939,34.9481154751743
62210,-0.339535564184189,35.0522801437655
62320,-0.339742720127106,35.1564448123567
62430,-0.33932837843895,35.4689463109133
62540,-0.341192841529846,35.3126918152436
62640,-0.340571343898773,35.1043624780611
62750,-0.340364187955856,35.2606169737309
62860,-0.340364187955856,35.3647816423221
62970,-0.340985685586929,35.2085271466523
63080,-0.339535564184189,34.8960256480958
63190,-0.341192841529846,34.739771152426
63300,-0.339742720127106,35.2085196538694
63410,-0.339949876070023,34.8439358210172
63520,-0.34077849984169,34.7918534867216
63630,-0.341192841529846,34.3751873195738
63740,-0.339535564184189,34.7918534867216
63850,-0.339535564184189,34.8439358210172
63960,-0.339742720127106,35.000182823904
64060,-0.340157032012939,34.8439358210172
64170,-0.341399997472763,34.5835166567562
64280,-0.340157032012939,34.6876813253474
64390,-0.339535564184189,34.8439283282342
64500,-0.340157032012939,34.7918459939386
64610,-0.339742720127106,34.8439283282342
64720,-0.34160715341568,34.6355914982689
64830,-0.340985685586929,34.4793370025991
64940,-0.339949876070023,34.6355840054859
65050,-0.339742720127106,34.8959956769639
65160,-0.341814309358597,34.6876663397815
65270,-0.340571343898773,34.6876663397815
65370,-0.339121222496033,34.7397486740771
65480,-0.339742720127106,34.8439133426683
65590,-0.340571343898773,34.6876663397815
65700,-0.34077849984169,34.9480855040425
65810,-0.339949876070023,35.1564148412249
65920,-0.340985685586929,34.9480780112596
66030,-0.340571343898773,34.5834941784074
66140,-0.339535564184189,34.7397411812942
66250,-0.339742720127106,34.7397411812942
66360,-0.34077849984169,34.4793295098161
66470,-0.340571343898773,34.4272471755205
66580,-0.341399997472763,34.2189103455552
66690,-0.339742720127106,34.635576512703
66790,-0.340157032012939,35.0001603455552
66900,-0.339949876070023,35.2605795098161
67010,-0.340985685586929,35.3647441784074
67120,-0.341399997472763,35.156407348442
67230,-0.339742720127106,35.1043250141464
67340,-0.340364187955856,35.156407348442
67450,-0.339535564184189,35.3647366856244
67560,-0.339949876070023,35.5730660228068
67670,-0.34077849984169,35.2605720170332
67780,-0.340364187955856,35.2084896827376
67890,-0.340571343898773,35.1043250141464
68000,-0.339949876070023,35.0522426798508
68100,-0.340985685586929,34.9480705184766
68210,-0.340571343898773,35.0522426798508
68320,-0.338914066553116,35.156407348442
68430,-0.340985685586929,35.0001528527722
68540,-0.34077849984169,35.1043250141464
68650,-0.340157032012939,35.5209911812942
68760,-0.339949876070023,35.0522426798508
68870,-0.341814309358597,34.5834941784074
68980,-0.339949876070023,34.6876588469986
69090,-0.339742720127106,34.895988184181
69200,-0.340364187955856,34.7918235155898
69310,-0.339949876070023,34.7918235155898
69420,-0.341192841529846,34.375157348442
69520,-0.340157032012939,34.4793220170332
69630,-0.340157032012939,34.4793220170332
69740,-0.340157032012939,34.5314043513288
69850,-0.340571343898773,34.3230750141464
69960,-0.340571343898773,34.375157348442
70070,-0.34077849984169,34.635576512703
70180,-0.340157032012939,34.5834941784074
70290,-0.34077849984169,34.5314118441118
70400,-0.340364187955856,34.4272471755205
70510,-0.340157032012939,34.6876663397815
70620,-0.338914066553116,35.1564148412249
70730,-0.339742720127106,35.4689163397815
70830,-0.34077849984169,35.2605870025991
70940,-0.340157032012939,35.1564223340079
71050,-0.339535564184189,35.3126693368947
71160,-0.339742720127106,35.5209986740771
71270,-0.340571343898773,35.5730810083727
71380,-0.34077849984169,35.5730810083727
71490,-0.341399997472763,35.3126618441118
71600,-0.340985685586929,35.1043250141464
71710,-0.340157032012939,35.0001603455552
71820,-0.340985685586929,35.0001603455552
71930,-0.340571343898773,34.4793295098161
72040,-0.340571343898773,34.2710001726337
72150,-0.340364187955856,34.1147531697469
72250,-0.340364187955856,33.9064238325645
72360,-0.339949876070023,33.9064238325645
72470,-0.340364187955856,33.7501768296777
72580,-0.339949876070023,34.1668429968255
72690,-0.341192841529846,34.1147606625299
72800,-0.340571343898773,34.0626783282342
72910,-0.339742720127106,34.1147606625299
73020,-0.339949876070023,34.1668429968255
73130,-0.339949876070023,34.5835091639733
73240,-0.340985685586929,34.4272546683035
73350,-0.340985685586929,34.2710001726337
73460,-0.339742720127106,34.4272471755205
73560,-0.339535564184189,34.7397411812942
73670,-0.339949876070023,34.9480705184766
73780,-0.339949876070023,35.1043175213634
73890,-0.340571343898773,34.6876513542156
74000,-0.340985685586929,34.5834791928415
74110,-0.340571343898773,34.375149855659
74220,-0.339949876070023,34.5834791928415
74330,-0.340985685586929,34.5313893657629
74440,-0.340364187955856,34.3751423628761
74550,-0.340157032012939,34.4793070314673
74660,-0.340157032012939,34.3751423628761
74770,-0.341399997472763,34.1147231986151
74880,-0.340571343898773,34.2709776942849
74980,-0.34077849984169,34.0626483571024
75090,-0.341192841529846,33.6980645242502
75200,-0.340364187955856,33.7501468585458
75310,-0.340364187955856,33.7501468585458
75420,-0.340364187955856,33.6980645242502
75530,-0.339535564184189,33.9584761957283
75640,-0.341192841529846,33.8543040343541
75750,-0.340364187955856,33.8543040343541
75860,-0.340364187955856,33.7501393657629
75970,-0.339742720127106,33.9584687029453
76080,-0.34077849984169,33.8022217000585
76190,-0.34077849984169,33.4897276942849
76290,-0.341814309358597,32.9688968585458
76400,-0.340571343898773,32.6563953599893
76510,-0.339949876070023,32.9688968585458
76620,-0.340157032012939,33.0730615271371
76730,-0.339949876070023,33.1772261957283
76840,-0.339949876070023,33.2813908643195
76950,-0.340364187955856,33.4376453599893
77060,-0.340157032012939,33.2813983571024
77170,-0.339949876070023,33.593899855659
77280,-0.34077849984169,33.333488184181
77390,-0.340985685586929,33.07306901992
77500,-0.340571343898773,33.1251513542156
77610,-0.340157032012939,33.3855705184766
77710,-0.34077849984169,33.073076512703
77820,-0.339949876070023,32.9689118441118
77930,-0.339535564184189,33.0209941784074
78040,-0.33932837843895,33.2293310083727
78150,-0.340571343898773,33.4376678383381
78260,-0.34077849984169,33.2814208354513
78370,-0.340364187955856,33.0730914982689
78480,-0.340364187955856,33.0210091639733
78590,-0.340364187955856,32.8647621610864
78700,-0.340985685586929,33.0210091639733
78810,-0.339742720127106,33.3335106625299
78920,-0.339742720127106,33.3855929968255
79020,-0.339949876070023,33.3335106625299
79130,-0.340157032012939,33.7501768296777
79240,-0.340571343898773,33.7501768296777
79350,-0.341192841529846,33.2293385011557
79460,-0.34077849984169,32.9689268296777
79570,-0.340985685586929,32.8647546683035
79680,-0.339949876070023,33.0730840054859
79790,-0.339949876070023,33.0730840054859
79900,-0.340571343898773,33.1772561668601
80010,-0.339742720127106,33.3855855040425
80120,-0.340364187955856,33.1772561668601
80230,-0.341192841529846,32.8126723340079
80340,-0.340985685586929,32.7605825069293
80440,-0.340364187955856,32.8126648412249
80550,-0.340157032012939,33.1251663397815
80660,-0.34077849984169,32.8647546683035
80770,-0.341192841529846,32.6043355040425
80880,-0.340985685586929,32.3439163397815
80990,-0.339742720127106,32.6564178383381
81100,-0.339949876070023,33.0210016711903
81210,-0.340364187955856,32.8647546683035
81320,-0.340985685586929,32.7085001726337
81430,-0.341192841529846,32.2918340054859
81540,-0.340985685586929,32.0314148412249
81650,-0.340571343898773,32.0834971755205
81750,-0.339742720127106,32.2397441784074
81860,-0.340985685586929,32.1355720170332
81970,-0.34077849984169,31.9272426798508
82080,-0.340364187955856,32.0834971755205
82190,-0.340364187955856,32.1355795098161
82300,-0.339949876070023,31.8751603455552
82410,-0.340571343898773,31.9793325069293
82520,-0.340364187955856,32.0834971755205
82630,-0.340364187955856,32.0314148412249
82740,-0.34077849984169,31.8230855040425
82850,-0.340985685586929,32.0314148412249
82960,-0.340571343898773,31.8751678383381
83070,-0.340985685586929,31.5626663397815
83170,-0.339742720127106,31.7189133426683
83280,-0.340571343898773,31.5626663397815
83390,-0.340364187955856,31.7710031697469
83500,-0.339742720127106,31.8751678383381
83610,-0.340985685586929,31.6668310083727
83720,-0.339949876070023,31.7189133426683
83830,-0.34077849984169,31.6668310083727
83940,-0.340157032012939,31.7709956769639
84050,-0.340157032012939,31.9272426798508
84160,-0.340364187955856,31.8751603455552
84270,-0.340364187955856,31.9793250141464
84380,-0.340571343898773,31.9272426798508
84480,-0.33932837843895,32.1355795098161
84590,-0.34077849984169,31.6668310083727
84700,-0.34077849984169,31.4064193368947
84810,-0.339949876070023,31.6147486740771
84920,-0.339535564184189,31.7709956769639
85030,-0.339949876070023,31.6668310083727
85140,-0.341192841529846,31.3022471755205
85250,-0.34160715341568,31.0418280112596
85360,-0.34077849984169,31.0418280112596
85470,-0.339742720127106,31.4584941784074
85580,-0.339535564184189,31.8230780112596
85690,-0.34077849984169,31.6668310083727
85800,-0.340985685586929,31.6668310083727
85900,-0.339535564184189,31.9272426798508
86010,-0.340985685586929,31.8230705184766
86120,-0.340985685586929,31.6668160228068
86230,-0.339742720127106,31.8230630256937
86340,-0.340571343898773,31.6668160228068
86450,-0.339949876070023,31.770980691398
86560,-0.340364187955856,31.6668160228068
86670,-0.340571343898773,31.8230705184766
86780,-0.339742720127106,32.031399855659
86890,-0.341399997472763,31.6147336885112
87000,-0.340157032012939,31.5626513542156
87110,-0.34077849984169,31.3543220170332
87210,-0.341192841529846,31.3022396827376
87320,-0.340571343898773,31.4064118441118
87430,-0.339949876070023,31.3543295098161
87540,-0.340364187955856,31.1460001726337
87650,-0.341814309358597,30.6772516711903
87760,-0.340364187955856,30.5730870025991
87870,-0.340364187955856,30.6251693368947
87980,-0.340571343898773,30.7293414982689
88090,-0.340571343898773,30.7293414982689
88200,-0.339535564184189,30.8335061668601
88310,-0.340985685586929,30.8335061668601
88420,-0.34077849984169,30.7293414982689
88530,-0.340157032012939,30.7293414982689
88630,-0.340571343898773,30.6251768296777
88740,-0.340364187955856,30.8855959939386
88850,-0.342228621244431,30.4689298267908
88960,-0.340985685586929,30.4168399997123
89070,-0.34077849984169,30.5210121610864
89180,-0.340985685586929,30.3647576654167
89290,-0.340985685586929,30.2085031697469
89400,-0.33932837843895,30.4689223340079
89510,-0.341192841529846,30.0522561668601
89620,-0.340985685586929,30.1043385011557
89730,-0.340157032012939,30.1564208354513
89840,-0.339742720127106,30.3126678383381
89940,-0.340985685586929,30.0001663397815
90050,-0.340571343898773,30.0522486740771
90160,-0.34160715341568,29.8439118441118
90270,-0.340364187955856,30.2084956769639
90380,-0.340571343898773,30.2084956769639
90490,-0.340157032012939,30.1564133426683
90600,-0.340571343898773,30.0522486740771
90710,-0.338706910610199,30.3647501726337
90820,-0.340985685586929,30.1043310083727
90930,-0.340985685586929,29.948076512703
91040,-0.340985685586929,29.7397396827376
91150,-0.339742720127106,29.7918220170332
91260,-0.341399997472763,29.6355675213634
91360,-0.340571343898773,29.7397396827376
91470,-0.340364187955856,29.7918220170332
91580,-0.339742720127106,29.8959866856244
91690,-0.340364187955856,30.0001513542156
91800,-0.34077849984169,29.7918220170332
91910,-0.339742720127106,29.7397396827376
92020,-0.340364187955856,29.4793205184766
92130,-0.340157032012939,29.5834851870678
92240,-0.339949876070023,29.7918145242502
92350,-0.340571343898773,29.7397321899546
92460,-0.340571343898773,29.687649855659
92570,-0.339742720127106,29.8438968585458
92670,-0.341192841529846,29.7918145242502
92780,-0.339742720127106,29.7918145242502
92890,-0.34077849984169,29.5314028527722
93000,-0.341192841529846,29.2189013542156
93110,-0.34077849984169,29.0626543513288
93220,-0.34077849984169,29.0105720170332
93330,-0.34077849984169,29.1147441784074
93440,-0.340364187955856,29.2189088469986
93550,-0.34160715341568,29.0626618441118
93660,-0.339949876070023,29.0626618441118
93770,-0.339949876070023,29.0626618441118
93880,-0.340157032012939,29.166826512703
93990,-0.340157032012939,29.0626618441118
94090,-0.341192841529846,28.8543250141464
94200,-0.341814309358597,28.6980780112596
94310,-0.341814309358597,28.4897486740771
94420,-0.33932837843895,28.7501678383381
94530,-0.340985685586929,28.5418310083727
94640,-0.340157032012939,28.6980780112596
94750,-0.341399997472763,28.6459956769639
94860,-0.339535564184189,29.0105795098161
94970,-0.341399997472763,28.5939133426683
95080,-0.340985685586929,28.3334941784074
95190,-0.340364187955856,28.3334941784074
95300,-0.34160715341568,28.1772471755205
95400,-0.339535564184189,28.5939133426683
95510,-0.339949876070023,28.8543325069293
95620,-0.341399997472763,28.6459956769639
95730,-0.340364187955856,28.4897486740771
95840,-0.339535564184189,28.8543325069293
95950,-0.340571343898773,28.9064148412249
96060,-0.341814309358597,28.5418310083727
96170,-0.34077849984169,28.4376663397815
96280,-0.34160715341568,28.0210001726337
96390,-0.339742720127106,28.2293295098161
96500,-0.340571343898773,28.1772471755205
96610,-0.33932837843895,28.4376663397815
96720,-0.340157032012939,28.5939133426683
96820,-0.340571343898773,28.6980855040425
96930,-0.339742720127106,28.9064148412249
97040,-0.341814309358597,28.6980855040425
97150,-0.340157032012939,28.5939208354513
97260,-0.340571343898773,28.5939208354513
97370,-0.341399997472763,28.3335016711903
97480,-0.340364187955856,28.1772546683035
97590,-0.34077849984169,28.229344495382
97700,-0.341399997472763,27.8647606625299
97810,-0.340157032012939,28.0210076654167
97920,-0.339949876070023,28.0730899997123
98030,-0.340364187955856,28.0210076654167
98130,-0.341192841529846,27.8126708354513
98240,-0.34077849984169,27.7085061668601
98350,-0.341399997472763,27.5001693368947
98460,-0.340985685586929,27.0834956769639
98570,-0.338914066553116,27.5522441784074
98680,-0.34077849984169,27.5522441784074
98790,-0.340571343898773,27.3959971755205
98900,-0.341192841529846,26.9793310083727
99010,-0.341399997472763,26.6147471755205
99120,-0.340985685586929,26.6668295098161
99230,-0.340364187955856,26.9793310083727
99340,-0.34077849984169,26.9793310083727
99450,-0.34077849984169,26.7189193368947
99550,-0.341192841529846,26.3022531697469
99660,-0.34160715341568,26.0939163397815
99770,-0.33932837843895,26.5105899997123
99880,-0.340571343898773,26.2501783282342
99990,-0.340157032012939,26.4585151581996
100100,-0.339742720127106,26.7710166567562
100210,-0.340571343898773,26.5626873195738
100320,-0.34077849984169,26.5106049852782
100430,-0.340157032012939,26.4585226509826
100540,-0.340364187955856,26.4585226509826
100650,-0.340985685586929,26.3543504896084
100760,-0.341399997472763,25.9376843224606
100860,-0.341192841529846,25.9897666567562
100970,-0.340364187955856,25.9376843224606
101080,-0.339535564184189,26.2501783282342
101190,-0.340985685586929,26.3022606625299
101300,-0.340571343898773,26.3022606625299
101410,-0.341399997472763,25.9376768296777
101520,-0.341192841529846,25.7293399997123
101630,-0.340985685586929,25.9376693368947
101740,-0.339535564184189,26.1459986740771
101850,-0.340157032012939,26.1980810083727
101960,-0.340985685586929,26.0939088469986
102070,-0.341399997472763,25.8855720170332
102180,-0.34077849984169,25.5730780112596
102280,-0.339949876070023,25.8334971755205
102390,-0.340571343898773,25.8855795098161
102500,-0.340571343898773,25.7814148412249
102610,-0.34160715341568,25.5209956769639
102720,-0.339535564184189,25.7293250141464
102830,-0.340985685586929,26.04181901992
102940,-0.340364187955856,26.1980735155898
103050,-0.340157032012939,26.3543205184766
103160,-0.340157032012939,26.562657348442
103270,-0.34160715341568,26.4064103455552
103380,-0.340985685586929,25.9897366856244
103490,-0.339535564184189,26.4064028527722
103590,-0.340157032012939,26.6147396827376
103700,-0.34077849984169,26.4584926798508
103810,-0.341192841529846,26.0939088469986
103920,-0.341192841529846,26.041826512703
104030,-0.341192841529846,25.8855720170332
104140,-0.341814309358597,25.8334896827376
104250,-0.339535564184189,26.04181901992
104360,-0.340571343898773,26.04181901992
104470,-0.341192841529846,25.781399855659
104580,-0.340571343898773,25.781399855659
104690,-0.34160715341568,25.0522321899546
104800,-0.340571343898773,25.1564043513288
104910,-0.340364187955856,25.3126588469986
105010,-0.340364187955856,25.4689133426683
105120,-0.339535564184189,25.5209956769639
105230,-0.340364187955856,25.7814148412249
105340,-0.340364187955856,25.8334971755205
105450,-0.341192841529846,25.6251603455552
105560,-0.339949876070023,25.5730780112596
105670,-0.340571343898773,25.5209956769639
105780,-0.341192841529846,25.4168235155898
105890,-0.340157032012939,25.3126588469986
106000,-0.340571343898773,25.260576512703
106110,-0.341399997472763,24.9480750141464
106220,-0.340157032012939,24.8959926798508
106320,-0.34077849984169,24.8439103455552
106430,-0.340571343898773,24.8439103455552
106540,-0.340571343898773,24.6355810083727
106650,-0.34077849984169,24.7397531697469
106760,-0.340571343898773,24.5314238325645
106870,-0.340157032012939,24.6876708354513
106980,-0.34077849984169,24.7918429968255
107090,-0.340364187955856,24.8960076654167
107200,-0.34077849984169,24.8960076654167
107310,-0.34160715341568,24.6876708354513
107420,-0.340364187955856,24.6876708354513
107530,-0.340364187955856,25.0001723340079
107640,-0.34077849984169,24.7918429968255
107740,-0.340364187955856,24.6876783282342
107850,-0.34160715341568,24.323094495382
107960,-0.34160715341568,23.9585106625299
108070,-0.339949876070023,24.2710121610864
108180,-0.33932837843895,24.8960151581996
108290,-0.340157032012939,25.3126813253474
108400,-0.340157032012939,25.104344495382
108510,-0.339949876070023,25.364763659643
108620,-0.340364187955856,25.3126813253474
108730,-0.34160715341568,25.2605989910518
108840,-0.34077849984169,24.9481049852782
108950,-0.340985685586929,25.0522696538694
109050,-0.340157032012939,25.2606064838348
109160,-0.341192841529846,25.0522696538694
109270,-0.340571343898773,25.3126888181304
109380,-0.340571343898773,25.0522771466523
109490,-0.340985685586929,24.7918579823914
109600,-0.340571343898773,25.0001948123567
109710,-0.339949876070023,25.104359480948
109820,-0.34077849984169,24.7918654751743
109930,-0.340571343898773,24.7918654751743
110040,-0.341399997472763,24.8960301437655
110150,-0.340571343898773,24.9481124780611
110260,-0.339949876070023,25.3647786452089
110370,-0.341399997472763,24.9481124780611
110470,-0.338914066553116,25.3647786452089
110580,-0.34160715341568,24.7918579823914
110690,-0.34077849984169,24.6356109795045
110800,-0.340157032012939,24.7397756480958
110910,-0.34077849984169,24.4793639766177
111020,-0.339742720127106,25.0001948123567
111130,-0.340157032012939,25.0001948123567
111240,-0.341192841529846,24.843940316687
111350,-0.34077849984169,25.0001948123567
111460,-0.34077849984169,24.8960301437655
111570,-0.340571343898773,24.9481124780611
111680,-0.340157032012939,25.2606139766177
111780,-0.341192841529846,25.0001948123567
111890,-0.339949876070023,25.0001948123567
112000,-0.341192841529846,24.7918579823914
112110,-0.340157032012939,25.0522771466523
112220,-0.339949876070023,25.2606064838348
112330,-0.339742720127106,25.6772726509826
112440,-0.341192841529846,25.625190316687
112550,-0.340571343898773,25.2085241495392
112660,-0.341192841529846,25.104351988165
112770,-0.340364187955856,25.1564343224606
112880,-0.339742720127106,25.5210181553128
112990,-0.342228621244431,25.3126888181304
113100,-0.340571343898773,25.4168609795045
113200,-0.340985685586929,25.2606064838348
113310,-0.341399997472763,25.104351988165
113420,-0.340985685586929,25.0522621610864
113530,-0.34077849984169,25.1564343224606
113640,-0.341814309358597,25.104351988165
113750,-0.341192841529846,24.6355959939386
113860,-0.34077849984169,24.583513659643
113970,-0.339742720127106,24.6876783282342
114080,-0.339949876070023,24.6355959939386
114190,-0.339742720127106,24.8439253311211
114300,-0.340157032012939,25.0001723340079
114410,-0.34077849984169,24.8439253311211
114510,-0.340571343898773,24.7918429968255
114620,-0.341192841529846,24.7397606625299
114730,-0.340571343898773,24.9480974924952
114840,-0.340571343898773,25.104351988165
114950,-0.34160715341568,24.7918504896084
115060,-0.340571343898773,24.5314388181304
115170,-0.339742720127106,24.843940316687
115280,-0.340571343898773,24.843940316687
115390,-0.341399997472763,24.843940316687
115500,-0.340571343898773,25.0001948123567
115610,-0.340985685586929,25.0001948123567
115720,-0.340364187955856,24.7918654751743
115830,-0.340157032012939,24.7918654751743
115930,-0.34077849984169,24.8439553022529
116040,-0.340571343898773,25.0522921322182
116150,-0.34160715341568,24.8439553022529
116260,-0.341814309358597,24.3752068008095
116370,-0.340157032012939,24.4793714694007
116480,-0.340157032012939,24.5835361379919
116590,-0.341192841529846,24.6877008065831
116700,-0.340364187955856,24.4793714694007
116810,-0.34077849984169,24.5314612964792
116920,-0.34077849984169,24.427296627888
117030,-0.340985685586929,24.2189597979226
117140,-0.340364187955856,24.166877463627
117240,-0.34077849984169,24.3752142935924
117350,-0.340364187955856,24.5314687892622
117460,-0.34077849984169,24.2189747834885
117570,-0.339949876070023,24.2710571177841
117680,-0.34160715341568,24.0627202878188
117790,-0.340157032012939,24.3231394520798
117900,-0.34077849984169,24.4273116134539
118010,-0.340985685586929,24.4793939477495
118120,-0.34077849984169,24.7398131120105
118230,-0.341814309358597,24.1668999419759
118340,-0.340985685586929,24.0627277806017
118450,-0.340157032012939,24.3231469448627
118560,-0.340571343898773,24.3231469448627
118660,-0.340364187955856,24.6356484434193
118770,-0.339949876070023,24.7918954463061
118880,-0.340571343898773,24.7398131120105
118990,-0.339949876070023,24.8439777806017
119100,-0.340571343898773,24.5835661091237
119210,-0.339949876070023,24.6877307777149
119320,-0.340571343898773,24.6356484434193
119430,-0.340985685586929,24.6877307777149
119540,-0.34077849984169,24.4794014405325
119650,-0.341192841529846,24.3231469448627
119760,-0.34077849984169,24.4273191062369
119870,-0.339742720127106,24.5314837748281
119970,-0.340364187955856,24.5835661091237
120080,-0.340571343898773,24.7919029390891
120190,-0.340571343898773,24.6877382704979
120300,-0.341192841529846,24.5835661091237
120410,-0.339949876070023,24.7398131120105
120520,-0.340364187955856,24.7918954463061
120630,-0.339949876070023,25.0002247834885
120740,-0.339949876070023,25.1564717863754
120850,-0.340571343898773,25.0523071177841
120960,-0.341399997472763,24.8960526221144
121070,-0.339742720127106,25.0522996250012
121180,-0.340985685586929,25.0002097979226
121290,-0.339535564184189,25.5210406336617
121390,-0.341399997472763,25.2606214694007
121500,-0.341399997472763,25.0002023051397
121610,-0.340571343898773,25.0522846394353
121720,-0.34077849984169,24.9481199708441
121830,-0.340157032012939,25.3127038036963
121940,-0.340364187955856,25.6252053022529
122050,-0.340364187955856,25.5210406336617
122160,-0.34077849984169,25.1564568008095
122270,-0.34077849984169,25.0002097979226
122380,-0.34160715341568,24.6356259650704
122490,-0.339742720127106,24.6877082993661
122600,-0.340157032012939,24.7397906336617
122700,-0.341399997472763,24.7918729679573
122810,-0.33932837843895,25.1564568008095
122920,-0.340985685586929,25.1564568008095
123030,-0.341399997472763,24.8439553022529
123140,-0.340571343898773,25.0002097979226
123250,-0.340364187955856,25.0522921322182
123360,-0.341192841529846,24.8960376365485
123470,-0.34160715341568,24.7397906336617
123580,-0.342021465301514,24.3752068008095
123690,-0.34077849984169,24.166877463627
123800,-0.340571343898773,24.2189597979226
123910,-0.339949876070023,24.3752068008095
124020,-0.340985685586929,24.4793714694007
124120,-0.340364187955856,24.5314538036963
124230,-0.340364187955856,24.4272891351051
124340,-0.339742720127106,24.8439553022529
124450,-0.34160715341568,24.1668699708441
124560,-0.34160715341568,24.1668699708441
124670,-0.339535564184189,24.4793639766177
124780,-0.341192841529846,24.2189448123567
124890,-0.340157032012939,24.3751918152436
125000,-0.34077849984169,24.1147801437655
125110,-0.340571343898773,24.0106154751743
125220,-0.34077849984169,24.1147876365485
125330,-0.340985685586929,24.0626978094699
125440,-0.339949876070023,24.2710271466523
125540,-0.340571343898773,24.2710271466523
125650,-0.341399997472763,23.9585256480958
125760,-0.341192841529846,23.9585256480958
125870,-0.340571343898773,23.8022786452089
125980,-0.340985685586929,23.8543609795045
126090,-0.340571343898773,23.7501963109133
126200,-0.340571343898773,23.5939493080265
126310,-0.34077849984169,23.3335376365485
126420,-0.340985685586929,23.3856199708441
126530,-0.341192841529846,23.2293654751743
126640,-0.340157032012939,23.4897846394353
126750,-0.339949876070023,23.5939493080265
126850,-0.340571343898773,23.3856199708441
126960,-0.339742720127106,24.0106154751743
127070,-0.341399997472763,23.8022786452089
127180,-0.340985685586929,23.8022786452089
127290,-0.340364187955856,24.0626978094699
127400,-0.340985685586929,24.0626978094699
127510,-0.340985685586929,24.0106079823914
127620,-0.340985685586929,24.2189373195738
127730,-0.34077849984169,24.323109480948
127840,-0.341192841529846,24.2189373195738
127950,-0.340985685586929,23.9064358210172
128060,-0.340571343898773,23.7501888181304
128170,-0.340571343898773,23.541859480948
128270,-0.339535564184189,23.6981064838348
128380,-0.339742720127106,23.9585181553128
128490,-0.341399997472763,23.7501813253474
128600,-0.340985685586929,23.802263659643
128710,-0.340571343898773,23.802263659643
128820,-0.34160715341568,23.541844495382
128930,-0.340364187955856,23.8543459939386
129040,-0.34077849984169,23.802263659643
129150,-0.340985685586929,23.4897621610864
129260,-0.339742720127106,23.6980914982689
129370,-0.340571343898773,23.9064283282342
129480,-0.34077849984169,23.8543459939386
129580,-0.340985685586929,23.8543459939386
129690,-0.340364187955856,23.8543459939386
129800,-0.341192841529846,23.5939268296777
129910,-0.340571343898773,23.6460091639733
130020,-0.339535564184189,23.9064208354513
130130,-0.341192841529846,24.0105855040425
130240,-0.340157032012939,24.4272516711903
130350,-0.340157032012939,24.4272516711903
130460,-0.34077849984169,24.2710046683035
130570,-0.340985685586929,24.3230870025991
130680,-0.34077849984169,24.2189223340079
130790,-0.33932837843895,24.5835061668601
130900,-0.340571343898773,24.6355885011557
131000,-0.340157032012939,24.8439253311211
131110,-0.340364187955856,24.8439253311211
131220,-0.34160715341568,24.6355885011557
131330,-0.339742720127106,24.7918355040425
131440,-0.340157032012939,24.9480825069293
131550,-0.34077849984169,24.7397531697469
131660,-0.341192841529846,24.8439178383381
131770,-0.34077849984169,24.6876708354513
131880,-0.340985685586929,24.6355810083727
131990,-0.341192841529846,24.5834986740771
132100,-0.340157032012939,24.7397456769639
132210,-0.34077849984169,25.0001648412249
132310,-0.34077849984169,25.0522546683035
132420,-0.34160715341568,24.6876708354513
132530,-0.340364187955856,24.7397531697469
132640,-0.340157032012939,24.7918355040425
132750,-0.339742720127106,24.8439178383381
132860,-0.340364187955856,24.8960001726337
132970,-0.339949876070023,24.8960001726337
133080,-0.34243580698967,24.4272441784074
133190,-0.341399997472763,24.0626603455552
133300,-0.340364187955856,24.1147426798508
133410,-0.340364187955856,24.2709971755205
133520,-0.339742720127106,24.5314088469986
133630,-0.340985685586929,24.5834911812942
133730,-0.341192841529846,24.47931901992
133840,-0.341399997472763,24.0626528527722
133950,-0.340985685586929,23.9063983571024
134060,-0.34077849984169,23.8543160228068
134170,-0.340157032012939,23.958480691398
134280,-0.341192841529846,23.958480691398
134390,-0.34077849984169,23.7501513542156
134500,-0.341192841529846,23.5418145242502
134610,-0.34077849984169,23.3334851870678
134720,-0.340157032012939,23.2814028527722
134830,-0.339742720127106,23.4897321899546
134940,-0.34077849984169,23.6459866856244
135040,-0.340571343898773,23.437657348442
135150,-0.33932837843895,23.8543310083727
135260,-0.34077849984169,23.5418370025991
135370,-0.340571343898773,23.7501738325645
135480,-0.34160715341568,23.6980914982689
135590,-0.340364187955856,23.7501738325645
135700,-0.340985685586929,23.6980840054859
135810,-0.339949876070023,23.7501663397815
135920,-0.340157032012939,23.8022486740771
136030,-0.340571343898773,23.7501663397815
136140,-0.341192841529846,23.6459941784074
136250,-0.340985685586929,23.5939043513288
136360,-0.340985685586929,23.7501513542156
136460,-0.341192841529846,23.3855675213634
136570,-0.341399997472763,23.0730660228068
136680,-0.33932837843895,23.5939043513288
136790,-0.34077849984169,23.2293205184766
136900,-0.340571343898773,23.3334926798508
137010,-0.340571343898773,23.5418295098161
137120,-0.340364187955856,23.5939118441118
137230,-0.340157032012939,23.6459941784074
137340,-0.340364187955856,23.8543310083727
137450,-0.339742720127106,24.3230795098161
137560,-0.340364187955856,24.7397456769639
137670,-0.340157032012939,24.8959926798508
137770,-0.339535564184189,25.1564043513288
137880,-0.341814309358597,24.6876558498854
137990,-0.34077849984169,24.7397456769639
138100,-0.339949876070023,24.8439103455552
138210,-0.340157032012939,24.8959926798508
138320,-0.339535564184189,24.9480750141464
138430,-0.341399997472763,25.000157348442
138540,-0.341399997472763,25.0522396827376
138650,-0.339949876070023,24.9480750141464
138760,-0.340364187955856,25.1564118441118
138870,-0.340157032012939,25.1564118441118
138980,-0.34077849984169,25.1564118441118
139090,-0.340157032012939,25.260576512703
139190,-0.34243580698967,24.8439028527722
139300,-0.341192841529846,24.7918205184766
139410,-0.34077849984169,24.5834911812942
139520,-0.341399997472763,24.3751543513288
139630,-0.34077849984169,24.5314088469986
139740,-0.340157032012939,24.7918280112596
139850,-0.342850118875504,24.218907348442
139960,-0.341399997472763,24.1147426798508
140070,-0.341814309358597,23.8022411812942
140180,-0.340364187955856,23.8543235155898
140290,-0.340985685586929,23.8022336885112
140400,-0.340571343898773,23.9064058498854
140500,-0.340985685586929,23.958488184181
140610,-0.341814309358597,23.5418220170332
140720,-0.340157032012939,23.4897396827376
140830,-0.34160715341568,23.2293205184766
140940,-0.34077849984169,22.9689088469986
141050,-0.34077849984169,23.1251633426683
141160,-0.340571343898773,23.2293355040425
141270,-0.340364187955856,23.2293355040425
141380,-0.340364187955856,23.3855899997123
141490,-0.340571343898773,23.4897621610864
141600,-0.341192841529846,23.4376798267908
141710,-0.339742720127106,23.6980914982689
141820,-0.341192841529846,23.6980914982689
141920,-0.341192841529846,23.6460091639733
142030,-0.341192841529846,23.4897546683035
142140,-0.341192841529846,23.3335001726337
142250,-0.340985685586929,22.9689163397815
142360,-0.340364187955856,22.8126693368947
142470,-0.340985685586929,22.9168340054859
142580,-0.339949876070023,23.1772531697469
142690,-0.34077849984169,23.1251708354513
142800,-0.34077849984169,23.3335076654167
142910,-0.339742720127106,23.4897546683035
143020,-0.340364187955856,23.5939193368947
143130,-0.340571343898773,23.6980914982689
143230,-0.34077849984169,23.4376798267908
143340,-0.340571343898773,23.4376798267908
143450,-0.340985685586929,23.3855899997123
143560,-0.341399997472763,23.2814253311211
143670,-0.340571343898773,23.2293429968255
143780,-0.341192841529846,23.2293429968255
143890,-0.340985685586929,23.1251708354513
144000,-0.339949876070023,23.0210061668601
144110,-0.340157032012939,23.2814253311211
144220,-0.340985685586929,23.0730885011557
144330,-0.341192841529846,22.8126693368947
144440,-0.341399997472763,22.6564148412249
144550,-0.34160715341568,22.5001678383381
144650,-0.340364187955856,22.6043325069293
144760,-0.340364187955856,22.3439133426683
144870,-0.340571343898773,22.3439133426683
144980,-0.34160715341568,21.9793295098161
145090,-0.339535564184189,22.1876588469986
145200,-0.339949876070023,22.6043250141464
145310,-0.340571343898773,22.3959956769639
145420,-0.340985685586929,22.1876588469986
145530,-0.339742720127106,22.4480705184766
145640,-0.340364187955856,22.656407348442
145750,-0.339535564184189,22.9689013542156
145860,-0.341814309358597,22.7605720170332
145960,-0.34077849984169,22.8647441784074
146070,-0.34077849984169,22.7084971755205
146180,-0.340985685586929,22.656407348442
146290,-0.340985685586929,22.6043175213634
146400,-0.339949876070023,23.0209836885112
146510,-0.339949876070023,23.1251483571024
146620,-0.340985685586929,22.9168115271371
146730,-0.341399997472763,22.5001453599893
146840,-0.34077849984169,22.395980691398
146950,-0.340985685586929,22.1355615271371
147060,-0.34160715341568,22.3438983571024
147170,-0.34160715341568,22.2918160228068
147280,-0.341192841529846,22.0834791928415
147380,-0.341399997472763,21.8230600285805
147490,-0.34077849984169,21.5626483571024
147600,-0.340571343898773,21.6668205184766
147710,-0.341399997472763,21.614738184181
147820,-0.340157032012939,21.9272396827376
147930,-0.340157032012939,22.135576512703
148040,-0.340364187955856,22.2397411812942
148150,-0.341814309358597,21.8230750141464
148260,-0.34077849984169,21.9272471755205
148370,-0.342021465301514,21.6147456769639
148480,-0.340364187955856,21.8230825069293
148590,-0.341192841529846,21.7189103455552
148690,-0.340571343898773,21.6147456769639
148800,-0.342021465301514,21.0418325069293
148910,-0.340985685586929,20.9897426798508
149020,-0.339535564184189,21.2501543513288
149130,-0.340985685586929,20.833480691398
149240,-0.341399997472763,20.6772261957283
149350,-0.341814309358597,20.3647246971717
149460,-0.341192841529846,20.4688893657629
149570,-0.341192841529846,20.2605525357975
149680,-0.340985685586929,20.2605525357975
149790,-0.340985685586929,20.0001333715365
149900,-0.340157032012939,20.0001333715365
150010,-0.340571343898773,20.0001333715365
150110,-0.340985685586929,20.0522157058321
150220,-0.34077849984169,20.1043055329107
150330,-0.341399997472763,20.0001408643195
150440,-0.341192841529846,20.0001408643195
150550,-0.34243580698967,19.7397217000585
150660,-0.341192841529846,19.2709657058321
150770,-0.342021465301514,18.9584642072756
150880,-0.340571343898773,18.9584642072756
150990,-0.340985685586929,18.8542920459014
151100,-0.341192841529846,18.645955215936
151210,-0.34160715341568,18.2813713830838
151320,-0.339949876070023,18.385536051675
151420,-0.34077849984169,18.125124380197
151530,-0.339949876070023,18.2292890487882
151640,-0.340985685586929,18.0209522188228
151750,-0.340985685586929,17.6563683859706
151860,-0.340571343898773,17.9688698845272
151970,-0.342228621244431,17.604286051675
152080,-0.34160715341568,17.1876198845272
152190,-0.34077849984169,17.0313728816404
152300,-0.340985685586929,16.6667890487882
152410,-0.341192841529846,16.7188713830838
152520,-0.341399997472763,16.7188713830838
152630,-0.341192841529846,16.4063698845272
152740,-0.340571343898773,16.3542875502316
152840,-0.340364187955856,16.302205215936
152950,-0.340157032012939,16.4584522188228
153060,-0.339742720127106,16.562616887414
153170,-0.341192841529846,16.8751183859706
153280,-0.341192841529846,16.8751183859706
153390,-0.34077849984169,16.8751183859706
153500,-0.340571343898773,17.083455215936
153610,-0.341399997472763,16.9272007202662
153720,-0.340364187955856,16.8751183859706
153830,-0.340364187955856,17.5001213830838
153940,-0.33932837843895,18.0209597116058
154050,-0.34077849984169,18.2813788758668
154150,-0.34077849984169,18.1772142072756
154260,-0.340571343898773,18.2813863686497
154370,-0.340571343898773,18.2813863686497
154480,-0.339742720127106,18.5938878672063
154590,-0.341192841529846,18.7501348700931
154700,-0.340364187955856,18.6980525357975
154810,-0.34077849984169,18.9063893657629
154920,-0.34077849984169,18.9063893657629
155030,-0.340157032012939,19.0626363686497
155140,-0.340985685586929,18.9584642072756
155250,-0.339949876070023,19.0626288758668
155360,-0.340571343898773,19.0105465415712
155470,-0.340364187955856,19.0626288758668
155570,-0.340157032012939,19.3230480401277
155680,-0.341399997472763,18.9063818729799
155790,-0.340364187955856,19.1147187029453
155900,-0.340985685586929,19.1668010372409
156010,-0.34160715341568,19.0626363686497
156120,-0.339742720127106,19.4272202015019
156230,-0.341399997472763,19.3230555329107
156340,-0.341814309358597,18.9584717000585
156450,-0.340157032012939,19.1668085300239
156560,-0.34077849984169,18.9584791928415
156670,-0.34077849984169,18.9584791928415
156780,-0.340571343898773,19.0105615271371
156880,-0.340364187955856,18.8543145242502
156990,-0.340364187955856,18.8543145242502
157100,-0.34077849984169,18.8022321899546
157210,-0.34077849984169,18.8022321899546
157320,-0.340985685586929,18.6980600285805
157430,-0.34077849984169,18.750149855659
157540,-0.340364187955856,19.01056901992
157650,-0.341399997472763,18.8022321899546
157760,-0.339742720127106,19.1668160228068
157870,-0.34077849984169,19.2189058498854
157980,-0.339742720127106,19.270988184181
158090,-0.339949876070023,19.3230705184766
158200,-0.340157032012939,19.531407348442
158300,-0.34077849984169,19.6355795098161
158410,-0.340571343898773,19.8439163397815
158520,-0.34160715341568,19.8439163397815
158630,-0.34160715341568,19.5314148412249
158740,-0.340571343898773,19.4793325069293
158850,-0.340157032012939,19.5834971755205
158960,-0.339742720127106,20.0522456769639
159070,-0.34077849984169,19.7397516711903
159180,-0.340571343898773,19.5835046683035
159290,-0.341192841529846,19.4272501726337
159400,-0.339949876070023,19.6876693368947
159510,-0.339949876070023,19.6355870025991
159610,-0.340157032012939,19.6876693368947
159720,-0.339949876070023,19.5835046683035
159830,-0.340364187955856,19.9480885011557
159940,-0.339949876070023,20.1564178383381
160050,-0.342021465301514,19.8439163397815
160160,-0.340571343898773,19.9480885011557
160270,-0.340157032012939,20.1564253311211
160380,-0.339742720127106,20.2085076654167
160490,-0.34160715341568,19.7918414982689
160600,-0.34077849984169,19.8439313253474
160710,-0.340364187955856,20.1043504896084
160820,-0.341192841529846,20.0001783282342
160930,-0.340364187955856,20.156432823904
161030,-0.340985685586929,20.3126798267908
161140,-0.340364187955856,20.6251813253474
161250,-0.341192841529846,20.6251813253474
161360,-0.340157032012939,20.937682823904
161470,-0.340985685586929,20.8855929968255
161580,-0.341399997472763,20.6772561668601
161690,-0.341399997472763,20.6772561668601
161800,-0.339949876070023,20.7293385011557
161910,-0.339742720127106,20.8335031697469
162020,-0.340985685586929,20.6772486740771
162130,-0.340364187955856,21.0418325069293
162240,-0.341192841529846,20.9376603455552
162340,-0.340364187955856,21.354326512703
162450,-0.339535564184189,21.5626558498854
162560,-0.34077849984169,21.6668280112596
162670,-0.340985685586929,21.5626558498854
162780,-0.340985685586929,21.8230675213634
162890,-0.34077849984169,21.875157348442
163000,-0.34077849984169,21.5626633426683
163110,-0.34077849984169,21.6147531697469
163220,-0.340571343898773,21.8230899997123
163330,-0.34160715341568,21.8751723340079
163440,-0.339742720127106,22.2397561668601
163550,-0.340364187955856,22.4480929968255
163660,-0.340571343898773,22.5522651581996
163760,-0.339949876070023,22.8126843224606
163870,-0.342021465301514,22.3439358210172
163980,-0.340364187955856,22.3960181553128
164090,-0.340985685586929,22.3960181553128
164200,-0.339949876070023,22.6043474924952
164310,-0.340364187955856,22.8647666567562
164420,-0.34077849984169,22.9689388181304
164530,-0.341399997472763,23.2293579823914
164640,-0.341192841529846,23.2293579823914
164750,-0.340157032012939,23.6981064838348
164860,-0.340985685586929,23.5939343224606
164970,-0.34077849984169,23.6460241495392
165070,-0.339949876070023,23.9585256480958
165180,-0.340571343898773,24.2189448123567
165290,-0.341399997472763,23.8543609795045
165400,-0.34077849984169,23.8543609795045
165510,-0.34077849984169,23.6460316423221
165620,-0.339535564184189,24.0106154751743
165730,-0.339535564184189,24.3751993080265
165840,-0.339535564184189,24.6356109795045
165950,-0.341192841529846,24.8960226509826
166060,-0.340571343898773,25.1564418152436
166170,-0.341192841529846,25.0522696538694
166280,-0.340985685586929,25.0522696538694
166390,-0.341192841529846,25.0522696538694
166490,-0.340985685586929,25.1564343224606
166600,-0.341192841529846,25.1564343224606
166710,-0.340364187955856,25.2085166567562
166820,-0.342228621244431,24.7397681553128
166930,-0.340571343898773,24.6356034867216
167040,-0.341399997472763,24.2189373195738
167150,-0.34077849984169,24.323109480948
167260,-0.339742720127106,24.6876933138001
167370,-0.339535564184189,25.0001873195738
167480,-0.34077849984169,24.9481049852782
167590,-0.340985685586929,25.0522696538694
167700,-0.342228621244431,24.583521152426
167800,-0.340364187955856,24.583521152426
167910,-0.341399997472763,24.062682823904
168020,-0.34160715341568,23.8543459939386
168130,-0.340157032012939,24.0105929968255
168240,-0.34160715341568,23.7501738325645
168350,-0.340571343898773,23.7501738325645
168460,-0.341192841529846,23.3855899997123
168570,-0.340985685586929,23.4376723340079
168680,-0.34077849984169,23.3335076654167
168790,-0.341192841529846,23.2293355040425
168900,-0.34077849984169,23.2293355040425
169010,-0.34077849984169,23.0730885011557
169120,-0.340985685586929,23.0730885011557
169220,-0.340571343898773,22.9168414982689
169330,-0.340571343898773,22.9168414982689
169440,-0.340571343898773,22.8647591639733
169550,-0.340571343898773,22.760594495382
169660,-0.340157032012939,23.0730959939386
169770,-0.34077849984169,22.9689313253474
169880,-0.34160715341568,22.8126843224606
169990,-0.340571343898773,23.0731034867216
170100,-0.340571343898773,22.8647741495392
170210,-0.341192841529846,22.9168564838348
170320,-0.341399997472763,23.021021152426
170430,-0.340364187955856,22.9689388181304
170530,-0.341192841529846,22.8647666567562
170640,-0.340364187955856,22.9689313253474
170750,-0.34077849984169,22.9168489910518
170860,-0.34077849984169,22.8126843224606
170970,-0.340157032012939,22.8647666567562
171080,-0.34077849984169,22.8647666567562
171190,-0.34077849984169,22.8647666567562
171300,-0.341399997472763,22.760601988165
171410,-0.34160715341568,22.5522651581996
171520,-0.34077849984169,22.4481004896084
171630,-0.34160715341568,22.3960181553128
171740,-0.340157032012939,22.2918534867216
171850,-0.340157032012939,22.4481004896084
171950,-0.339742720127106,22.4481004896084
172060,-0.340571343898773,22.2918534867216
172170,-0.340985685586929,22.0835166567562
172280,-0.340571343898773,22.1355989910518
172390,-0.34160715341568,21.8751798267908
172500,-0.339949876070023,22.2918459939386
172610,-0.341192841529846,22.3960106625299
172720,-0.34160715341568,22.1355914982689
172830,-0.340157032012939,22.1355914982689
172940,-0.34160715341568,21.6668429968255
173050,-0.339742720127106,21.9272546683035
173160,-0.341192841529846,21.7710001726337
173260,-0.342021465301514,21.5626708354513
173370,-0.340571343898773,21.4064238325645
173480,-0.341399997472763,21.0418399997123
173590,-0.34160715341568,20.6772561668601
173700,-0.340985685586929,20.4168370025991
173810,-0.34077849984169,20.3126723340079
173920,-0.342021465301514,19.7918414982689
174030,-0.340364187955856,20.2085076654167
174140,-0.340364187955856,20.2605899997123
174250,-0.341192841529846,20.0001708354513
174360,-0.341814309358597,19.4793399997123
174470,-0.340364187955856,19.7918414982689
174580,-0.34160715341568,19.5835046683035
174680,-0.341192841529846,19.3751678383381
174790,-0.34077849984169,19.4793399997123
174900,-0.341399997472763,19.2189208354513
175010,-0.34077849984169,19.2710106625299
175120,-0.340985685586929,19.1147561668601
175230,-0.34160715341568,19.0105914982689
175340,-0.339742720127106,19.1147561668601
175450,-0.340157032012939,19.3230929968255
175560,-0.341814309358597,19.2189283282342
175670,-0.340985685586929,19.3230929968255
175780,-0.340985685586929,19.0626738325645
175890,-0.340985685586929,18.7501723340079
175990,-0.34077849984169,18.8022621610864
176100,-0.341192841529846,18.5939253311211
176210,-0.34160715341568,18.4897606625299
176320,-0.34243580698967,17.9689223340079
176430,-0.339535564184189,17.9689223340079
176540,-0.339949876070023,18.1772516711903
176650,-0.340571343898773,18.2814238325645
176760,-0.34160715341568,18.1251768296777
176870,-0.341192841529846,18.0210046683035
176980,-0.340985685586929,17.9689148412249
177090,-0.340571343898773,18.0209971755205
177200,-0.340571343898773,18.0209971755205
177310,-0.342228621244431,17.8647501726337
177410,-0.340985685586929,17.5522486740771
177520,-0.341192841529846,17.3439118441118
177630,-0.340985685586929,17.2397396827376
177740,-0.340364187955856,17.1355750141464
177850,-0.342021465301514,17.1355750141464
177960,-0.341399997472763,16.8751558498854
178070,-0.340157032012939,17.0834926798508
178180,-0.340571343898773,16.9272456769639
178290,-0.340571343898773,16.8751633426683
178400,-0.34077849984169,16.8751633426683
178510,-0.340985685586929,16.9793280112596
178620,-0.341192841529846,16.9793280112596
178720,-0.340571343898773,16.8751633426683
178830,-0.341399997472763,16.7709986740771
178940,-0.340364187955856,16.8751633426683
179050,-0.339949876070023,16.8751633426683
179160,-0.340364187955856,16.9272456769639
179270,-0.341192841529846,16.9793280112596
179380,-0.340571343898773,17.0314103455552
179490,-0.342021465301514,16.7189088469986
179600,-0.341399997472763,16.2501603455552
179710,-0.340985685586929,15.885576512703
179820,-0.341192841529846,15.4689103455552
179930,-0.341192841529846,15.4689103455552
180040,-0.34077849984169,15.4168280112596
180140,-0.340157032012939,15.6772471755205
180250,-0.340157032012939,15.8855840054859
180360,-0.340985685586929,15.9376663397815
180470,-0.340571343898773,16.0418385011557
180580,-0.341192841529846,16.0418385011557
180690,-0.339535564184189,16.2501678383381
180800,-0.340364187955856,16.7189163397815
180910,-0.34160715341568,16.4584971755205
181020,-0.341192841529846,16.5105795098161
181130,-0.340364187955856,16.6147441784074
181240,-0.34077849984169,16.3543325069293
181350,-0.340364187955856,16.1460031697469
181450,-0.340157032012939,16.3022501726337
181560,-0.341399997472763,16.1980855040425
181670,-0.341192841529846,16.4584971755205
181780,-0.340364187955856,16.4584971755205
181890,-0.340985685586929,16.5626618441118
182000,-0.340157032012939,16.9272456769639
182110,-0.340985685586929,16.7189088469986
182220,-0.34077849984169,16.9272456769639
182330,-0.339949876070023,17.0834926798508
182440,-0.340985685586929,17.1355750141464
182550,-0.342228621244431,16.8230810083727
182660,-0.340364187955856,16.9272456769639
182770,-0.341399997472763,16.8751633426683
182870,-0.341399997472763,16.7189088469986
182980,-0.341399997472763,16.5626543513288
183090,-0.34160715341568,16.406407348442
183200,-0.340985685586929,16.3022351870678
183310,-0.34160715341568,16.0418160228068
183420,-0.340985685586929,15.9376438614327
183530,-0.339121222496033,16.3022276942849
183640,-0.340364187955856,16.2501453599893
183750,-0.340157032012939,16.4063923628761
183860,-0.340157032012939,16.7709761957283
183970,-0.34160715341568,16.5105570314673
184080,-0.340571343898773,16.5105570314673
184180,-0.341192841529846,16.5105570314673
184290,-0.340364187955856,16.7709761957283
184400,-0.340985685586929,16.6147217000585
184510,-0.339742720127106,16.9793055329107
184620,-0.340157032012939,17.0313878672063
184730,-0.34077849984169,17.0313878672063
184840,-0.340985685586929,16.9792980401277
184950,-0.340985685586929,16.7709612101624
185060,-0.340157032012939,16.9272082130492
185170,-0.34160715341568,16.7188713830838
185280,-0.340364187955856,16.9792905473448
185390,-0.341192841529846,17.083455215936
185500,-0.34160715341568,16.8751183859706
185600,-0.34077849984169,17.083455215936
185710,-0.340571343898773,16.9792905473448
185820,-0.341814309358597,16.562624380197
185930,-0.340571343898773,16.3542950430146
186040,-0.33932837843895,16.6667965415712
186150,-0.34077849984169,16.7188863686497
186260,-0.340571343898773,16.7188863686497
186370,-0.34077849984169,16.9272231986151
186480,-0.340985685586929,16.6668040343541
186590,-0.340157032012939,16.9272231986151
186700,-0.340571343898773,17.1876423628761
186810,-0.340571343898773,17.0834776942849
186910,-0.341192841529846,17.1876423628761
187020,-0.340364187955856,17.0313953599893
187130,-0.342021465301514,16.8230660228068
187240,-0.34160715341568,16.927230691398
187350,-0.341399997472763,16.7188938614327
187460,-0.340571343898773,16.927230691398
187570,-0.342021465301514,16.8230660228068
187680,-0.339742720127106,17.1355675213634
187790,-0.34077849984169,17.1355675213634
187900,-0.34077849984169,17.44806901992
188010,-0.341399997472763,17.187649855659
188120,-0.341192841529846,16.9793130256937
188230,-0.34160715341568,16.8751483571024
188330,-0.339949876070023,17.3438968585458
188440,-0.339535564184189,17.5522261957283
188550,-0.341814309358597,17.5001438614327
188660,-0.340157032012939,17.7605630256937
188770,-0.341814309358597,17.5001438614327
188880,-0.342021465301514,17.3438968585458
188990,-0.340157032012939,17.5001438614327
189100,-0.341192841529846,17.4480615271371
189210,-0.34160715341568,17.4480615271371
189320,-0.34160715341568,16.9793130256937
189430,-0.341192841529846,16.7188938614327
189540,-0.341192841529846,16.8751408643195
189640,-0.341192841529846,16.8230585300239
189750,-0.340157032012939,17.0313953599893
189860,-0.341814309358597,16.8230660228068
189970,-0.340571343898773,16.8751483571024
190080,-0.339949876070023,17.187649855659
190190,-0.341192841529846,17.2918145242502
190300,-0.34077849984169,17.708488184181
190410,-0.341399997472763,17.2397396827376
190520,-0.340571343898773,17.0834926798508
190630,-0.341192841529846,16.927238184181
190740,-0.34077849984169,17.1355750141464
190850,-0.341192841529846,17.1355750141464
190960,-0.340157032012939,17.3439118441118
191060,-0.341399997472763,17.1355750141464
191170,-0.34160715341568,16.8751558498854
191280,-0.341399997472763,17.0834851870678
191390,-0.34160715341568,16.927238184181
191500,-0.341192841529846,16.927238184181
191610,-0.340985685586929,16.927238184181
191720,-0.341192841529846,16.7189013542156
191830,-0.341399997472763,16.8751483571024
191940,-0.340571343898773,17.0834851870678
192050,-0.340571343898773,16.9793205184766
192160,-0.340364187955856,17.0314028527722
192270,-0.339949876070023,17.187649855659
192370,-0.340985685586929,17.1355600285805
192480,-0.341399997472763,17.0313953599893
192590,-0.34160715341568,16.927230691398
192700,-0.340364187955856,16.9793130256937
192810,-0.340985685586929,17.0834776942849
192920,-0.340364187955856,17.0834776942849
193030,-0.340364187955856,16.9793130256937
193140,-0.340571343898773,16.927230691398
193250,-0.341192841529846,16.927230691398
193360,-0.341399997472763,16.7188938614327
193470,-0.340571343898773,17.0834776942849
193580,-0.34160715341568,17.0313953599893
193690,-0.340364187955856,17.187649855659
193790,-0.340571343898773,17.3439043513288
193900,-0.340571343898773,17.5001588469986
194010,-0.34077849984169,17.5001588469986
194120,-0.341399997472763,17.187657348442
194230,-0.339949876070023,17.2397396827376
194340,-0.341192841529846,17.187657348442
194450,-0.339949876070023,17.3439043513288
194560,-0.341399997472763,17.2918220170332
194670,-0.340571343898773,17.0314103455552
194780,-0.341192841529846,16.8230735155898
194890,-0.340364187955856,17.1355750141464
195000,-0.34077849984169,17.2397471755205
195100,-0.340571343898773,17.1876648412249
195210,-0.341814309358597,16.9272456769639
195320,-0.340571343898773,16.8751633426683
195430,-0.34077849984169,16.7189163397815
195540,-0.340985685586929,16.8230810083727
195650,-0.341399997472763,16.7709986740771
195760,-0.340364187955856,16.7709986740771
195870,-0.341192841529846,16.7189163397815
195980,-0.340985685586929,16.5105795098161
196090,-0.340985685586929,16.5105795098161
196200,-0.340157032012939,16.666826512703
196310,-0.34077849984169,16.4584971755205
196420,-0.341399997472763,16.3543325069293
196520,-0.340985685586929,16.666826512703
196630,-0.341192841529846,16.4584896827376
196740,-0.341814309358597,16.3543250141464
196850,-0.341814309358597,16.2501603455552
196960,-0.341814309358597,16.1459956769639
197070,-0.34077849984169,16.3543325069293
197180,-0.340157032012939,16.5626693368947
197290,-0.34077849984169,16.7710061668601
197400,-0.340157032012939,16.9793429968255
197510,-0.341192841529846,16.4585046683035
197620,-0.341399997472763,16.1980855040425
197730,-0.341192841529846,15.9376663397815
197830,-0.340985685586929,15.7293295098161
197940,-0.339949876070023,16.1459956769639
198050,-0.340364187955856,16.1980780112596
198160,-0.341814309358597,16.0418310083727
198270,-0.341192841529846,15.8334941784074
198380,-0.341192841529846,15.7814118441118
198490,-0.341399997472763,15.3647456769639
198600,-0.340571343898773,15.2605810083727
198710,-0.341192841529846,15.1564088469986
198820,-0.341814309358597,14.9480795098161
198930,-0.340985685586929,14.9480795098161
199040,-0.340364187955856,14.8959971755205
199150,-0.340985685586929,15.0522441784074
199250,-0.340571343898773,15.0001618441118
199360,-0.340985685586929,15.0522441784074
199470,-0.340364187955856,15.3647456769639
199580,-0.340571343898773,15.4168280112596
199690,-0.340364187955856,15.4689103455552
199800,-0.34077849984169,15.7293295098161
199910,-0.34160715341568,15.4689103455552
200020,-0.342228621244431,14.7397426798508
200130,-0.340985685586929,14.6876528527722
200240,-0.340571343898773,14.6876528527722
200350,-0.34077849984169,14.6876528527722
200460,-0.34160715341568,14.5314058498854
200560,-0.34160715341568,14.1668220170332
200670,-0.340571343898773,14.1668220170332
200780,-0.341192841529846,14.0105675213634
200890,-0.340985685586929,14.062649855659
201000,-0.341399997472763,13.802230691398
201110,-0.340157032012939,14.2709791928415
201220,-0.34160715341568,14.2709791928415
201330,-0.34077849984169,14.4272336885112
201440,-0.34160715341568,14.1668145242502
201550,-0.340985685586929,14.4272261957283
201660,-0.339949876070023,14.3751438614327
201770,-0.340985685586929,14.3230540343541
201880,-0.34077849984169,14.3230540343541
201980,-0.339742720127106,14.7397202015019
202090,-0.341192841529846,14.7397202015019
202200,-0.340571343898773,15.0001393657629
202310,-0.340985685586929,14.7397202015019
202420,-0.341192841529846,14.3230540343541
202530,-0.340985685586929,14.5313833715365
202640,-0.34077849984169,14.3751363686497
202750,-0.340571343898773,14.6876378672063
202860,-0.341814309358597,14.7397202015019
202970,-0.341399997472763,14.4272187029453
203080,-0.339949876070023,14.7397202015019
203190,-0.341192841529846,14.8438848700931
203290,-0.340985685586929,15.0001318729799
203400,-0.34077849984169,15.1043040343541
203510,-0.340571343898773,15.2605585300239
203620,-0.340571343898773,15.4168130256937
203730,-0.340571343898773,15.3126483571024
203840,-0.339742720127106,15.8334791928415
203950,-0.339742720127106,16.0418085300239
204060,-0.341192841529846,15.7293070314673
204170,-0.342850118875504,15.3126408643195
204280,-0.340571343898773,15.3647231986151
204390,-0.341399997472763,15.3647231986151
204500,-0.341399997472763,15.1563863686497
204610,-0.340985685586929,15.2084687029453
204710,-0.34077849984169,15.2084687029453
204820,-0.34077849984169,15.3126408643195
204930,-0.34077849984169,15.1563938614327
205040,-0.339535564184189,15.6251423628761
205150,-0.34077849984169,15.8334791928415
205260,-0.340985685586929,15.9376438614327
205370,-0.341399997472763,15.9897261957283
205480,-0.34077849984169,16.0938983571024
205590,-0.340985685586929,16.0938983571024
205700,-0.340364187955856,16.3022351870678
205810,-0.34243580698967,16.0418160228068
205920,-0.339949876070023,16.1980630256937
206030,-0.339949876070023,16.3543100285805
206130,-0.34160715341568,16.0418085300239
206240,-0.34077849984169,15.8334791928415
206350,-0.341399997472763,15.7293145242502
206460,-0.34077849984169,15.88556901992
206570,-0.34077849984169,16.0939058498854
206680,-0.341192841529846,15.88556901992
206790,-0.340985685586929,15.88556901992
206900,-0.340985685586929,15.7293145242502
207010,-0.340157032012939,15.7813968585458
207120,-0.340364187955856,15.8334791928415
207230,-0.342021465301514,15.625149855659
207340,-0.341192841529846,15.6772321899546
207440,-0.34160715341568,15.4168130256937
207550,-0.34160715341568,15.4168130256937
207660,-0.341192841529846,15.2084761957283
207770,-0.340157032012939,15.3126408643195
207880,-0.342228621244431,14.8959746971717
207990,-0.341399997472763,14.7397202015019
208100,-0.339742720127106,15.1563863686497
208210,-0.339949876070023,15.1563863686497
208320,-0.340985685586929,15.2084687029453
208430,-0.34077849984169,15.0001393657629
208540,-0.34160715341568,14.9480570314673
208650,-0.341399997472763,14.7397202015019
208760,-0.340364187955856,14.9480570314673
208860,-0.340157032012939,15.0001393657629
208970,-0.341814309358597,14.7397202015019
209080,-0.341192841529846,14.5834657058321
209190,-0.34077849984169,14.8438848700931
209300,-0.340364187955856,14.8959672043887
209410,-0.34077849984169,14.8959672043887
209520,-0.340571343898773,15.0001393657629
209630,-0.340985685586929,15.1043040343541
209740,-0.341399997472763,14.8438848700931
209850,-0.340364187955856,15.0522217000585
209960,-0.339949876070023,15.3126408643195
210070,-0.339949876070023,15.5730600285805
210170,-0.340571343898773,15.4688953599893
210280,-0.341399997472763,15.3126408643195
210390,-0.341814309358597,15.2084761957283
210500,-0.341192841529846,15.1563938614327
210610,-0.34077849984169,15.2605660228068
210720,-0.340571343898773,15.5730675213634
210830,-0.340571343898773,15.88556901992
210940,-0.34160715341568,15.9376513542156
211050,-0.340157032012939,16.0938983571024
211160,-0.340571343898773,15.9897336885112
211270,-0.34077849984169,15.9897336885112
211380,-0.34077849984169,15.8334866856244
211490,-0.340985685586929,15.88556901992
211590,-0.341192841529846,15.9376513542156
211700,-0.340571343898773,16.0939058498854
211810,-0.340571343898773,16.1980780112596
211920,-0.340571343898773,16.0418310083727
212030,-0.340571343898773,15.9897486740771
212140,-0.340364187955856,16.3543325069293
212250,-0.340571343898773,16.5105870025991
212360,-0.340364187955856,16.7189238325645
212470,-0.34160715341568,16.6668414982689
212580,-0.340985685586929,16.5626693368947
212690,-0.340364187955856,16.7710061668601
212800,-0.340985685586929,16.9793355040425
212900,-0.339742720127106,17.2918370025991
213010,-0.341399997472763,17.0314178383381
213120,-0.340571343898773,17.1355899997123
213230,-0.339742720127106,17.3439193368947
213340,-0.341399997472763,17.2397546683035
213450,-0.341192841529846,17.0314178383381
213560,-0.340985685586929,16.9272456769639
213670,-0.341399997472763,16.666826512703
213780,-0.340985685586929,16.6147366856244
213890,-0.341399997472763,16.66681901992
214000,-0.340985685586929,16.9793130256937
214110,-0.34160715341568,16.8230660228068
214220,-0.34160715341568,16.5626468585458
214320,-0.340571343898773,16.6147291928415
214430,-0.340571343898773,16.8751483571024
214540,-0.341399997472763,16.927230691398
214650,-0.34160715341568,16.6668115271371
214760,-0.340985685586929,16.7188938614327
214870,-0.340157032012939,16.927230691398
214980,-0.339949876070023,17.2918145242502
215090,-0.341192841529846,17.0313953599893
215200,-0.34077849984169,17.2397321899546
215310,-0.340571343898773,17.2918145242502
215420,-0.34160715341568,17.2918145242502
215530,-0.340985685586929,17.2918145242502
215630,-0.34077849984169,17.0834851870678
215740,-0.340571343898773,17.187657348442
215850,-0.340571343898773,17.2397396827376
215960,-0.341814309358597,16.7189088469986
216070,-0.34160715341568,16.6147441784074
216180,-0.34077849984169,16.5626618441118
216290,-0.341192841529846,16.5105795098161
216400,-0.341192841529846,16.5105795098161
216510,-0.34077849984169,16.5626693368947
216620,-0.340985685586929,16.5105795098161
216730,-0.341399997472763,16.3022426798508
216840,-0.340985685586929,16.5105720170332
216950,-0.339742720127106,16.927238184181
217050,-0.340157032012939,16.8751558498854
217160,-0.340571343898773,17.0314103455552
217270,-0.341399997472763,16.9272456769639
217380,-0.342021465301514,16.6147441784074
217490,-0.340571343898773,16.6147441784074
217600,-0.342021465301514,16.2501603455552
217710,-0.340364187955856,16.3022426798508
217820,-0.34160715341568,15.8334941784074
217930,-0.34160715341568,15.3647456769639
218040,-0.341192841529846,15.3647456769639
218150,-0.339535564184189,16.1980780112596
218260,-0.341192841529846,16.0418235155898
218360,-0.340364187955856,16.3022426798508
218470,-0.340985685586929,16.406407348442
218580,-0.34077849984169,16.4584971755205
218690,-0.341399997472763,16.3022426798508
218800,-0.340571343898773,16.3543250141464
218910,-0.340985685586929,16.3022351870678
219020,-0.341399997472763,15.8334866856244
219130,-0.34077849984169,15.8334866856244
219240,-0.341399997472763,15.7293220170332
219350,-0.341192841529846,15.7814043513288
219460,-0.339742720127106,16.0418160228068
219570,-0.340364187955856,16.1980705184766
219680,-0.34160715341568,15.88556901992
219780,-0.34077849984169,16.3022426798508
219890,-0.341192841529846,15.9897411812942
220000,-0.341399997472763,15.625157348442
220110,-0.34160715341568,15.625157348442
220220,-0.341192841529846,15.5209851870678
220330,-0.341192841529846,15.5730675213634
220440,-0.339535564184189,15.8855615271371
220550,-0.34160715341568,15.6772246971717
220660,-0.339949876070023,15.9897261957283
220770,-0.34077849984169,16.0418160228068
220880,-0.340157032012939,16.2501528527722
220990,-0.340157032012939,16.2501528527722
221090,-0.340985685586929,16.0938983571024
221200,-0.342021465301514,16.0938983571024
221310,-0.34160715341568,15.9897336885112
221420,-0.340157032012939,16.3543175213634
221530,-0.34077849984169,16.5626543513288
221640,-0.342228621244431,16.3022426798508
221750,-0.340985685586929,16.0939058498854
221860,-0.34160715341568,16.2501528527722
221970,-0.340985685586929,16.3543175213634
222080,-0.340364187955856,16.1980705184766
222190,-0.34160715341568,15.7814043513288
222300,-0.340364187955856,15.9376588469986
222410,-0.340157032012939,16.0939058498854
222510,-0.341192841529846,16.1980705184766
222620,-0.339535564184189,16.66681901992
222730,-0.340157032012939,16.7189013542156
222840,-0.339949876070023,16.7709836885112
222950,-0.34160715341568,16.8230660228068
223060,-0.340364187955856,17.0314028527722
223170,-0.340364187955856,17.1355675213634
223280,-0.340571343898773,17.0834851870678
223390,-0.340157032012939,17.2397321899546
223500,-0.34077849984169,17.187649855659
223610,-0.341399997472763,17.0834851870678
223720,-0.341192841529846,17.1355675213634
223820,-0.341814309358597,16.7709836885112
223930,-0.342021465301514,16.2501528527722
224040,-0.340157032012939,16.1980705184766
224150,-0.340571343898773,16.1980705184766
224260,-0.340364187955856,16.4584896827376
224370,-0.340571343898773,16.7709911812942
224480,-0.34077849984169,16.8751633426683
224590,-0.341399997472763,16.7189088469986
224700,-0.341399997472763,16.5105720170332
224810,-0.340157032012939,16.6147366856244
224920,-0.340571343898773,16.8751558498854
225030,-0.340985685586929,16.66681901992
225140,-0.341399997472763,16.4584821899546
225240,-0.34077849984169,16.4584821899546
225350,-0.340571343898773,16.5105645242502
225460,-0.342021465301514,16.2501528527722
225570,-0.340985685586929,16.3022351870678
225680,-0.34160715341568,16.0418160228068
225790,-0.340571343898773,16.0418160228068
225900,-0.341399997472763,15.8334791928415
226010,-0.34077849984169,15.7813968585458
226120,-0.340985685586929,15.6251423628761
226230,-0.341399997472763,15.4168055329107
226340,-0.34160715341568,15.1043040343541
226450,-0.339535564184189,15.6251348700931
226550,-0.341814309358597,15.4168055329107
226660,-0.34077849984169,15.3126408643195
226770,-0.34077849984169,15.364730691398
226880,-0.34077849984169,15.10431901992
226990,-0.340157032012939,15.4168205184766
227100,-0.341814309358597,15.10431901992
227210,-0.340157032012939,15.0001543513288
227320,-0.340157032012939,15.3126558498854
227430,-0.340364187955856,15.5209926798508
227540,-0.34160715341568,15.3647456769639
227650,-0.342021465301514,15.2084986740771
227760,-0.34077849984169,15.2605885011557
227870,-0.340985685586929,15.3647531697469
227970,-0.341399997472763,15.2605885011557
228080,-0.341192841529846,15.3647531697469
228190,-0.341399997472763,15.4168355040425
228300,-0.34160715341568,15.1564163397815
228410,-0.340157032012939,15.2605810083727
228520,-0.340364187955856,15.5210001726337
228630,-0.339949876070023,15.9376663397815
228740,-0.339742720127106,16.2501678383381
228850,-0.340571343898773,16.1460031697469
228960,-0.340985685586929,15.8855840054859
229070,-0.342228621244431,15.6251723340079
229180,-0.340364187955856,15.7293370025991
229280,-0.34077849984169,15.6772546683035
229390,-0.340364187955856,15.9897561668601
229500,-0.34077849984169,16.0418459939386
229610,-0.341399997472763,15.8855914982689
229720,-0.341192841529846,15.7293370025991
229830,-0.34077849984169,15.6772546683035
229940,-0.341192841529846,15.8335016711903
230050,-0.340157032012939,16.1980855040425
230160,-0.341399997472763,16.0418310083727
230270,-0.340571343898773,16.1980855040425
230380,-0.340157032012939,16.4585046683035
230490,-0.341192841529846,16.3543325069293
230600,-0.34077849984169,16.4064223340079
230700,-0.340985685586929,16.5105870025991
230810,-0.34077849984169,16.5626768296777
230920,-0.341399997472763,16.1460106625299
231030,-0.342228621244431,15.6251798267908
231140,-0.342228621244431,15.208513659643
231250,-0.341814309358597,15.1043489910518
231360,-0.340364187955856,15.5210151581996
231470,-0.341192841529846,15.3647606625299
231580,-0.340985685586929,15.6251723340079
231690,-0.340157032012939,15.6772546683035
231800,-0.340364187955856,15.9897561668601
231910,-0.341192841529846,16.0939208354513
232010,-0.341814309358597,15.9376738325645
232120,-0.34077849984169,15.6251798267908
232230,-0.341814309358597,15.468932823904
232340,-0.340157032012939,15.5210151581996
232450,-0.340157032012939,15.729351988165
232560,-0.34077849984169,15.729351988165
232670,-0.340364187955856,15.989771152426
232780,-0.340571343898773,15.989771152426
232890,-0.34077849984169,16.0418609795045
233000,-0.340571343898773,16.2501978094699
233110,-0.34077849984169,16.2501978094699
233220,-0.341192841529846,16.3022801437655
233330,-0.34243580698967,15.9897786452089
233430,-0.341814309358597,15.4689478094699
233540,-0.34077849984169,15.3647831408787
233650,-0.341399997472763,15.4168654751743
233760,-0.341814309358597,15.1564463109133
233870,-0.340571343898773,15.3127008065831
233980,-0.340571343898773,15.5210376365485
234090,-0.341399997472763,15.5731199708441
234200,-0.340571343898773,15.7293744665139
234310,-0.341192841529846,15.7293744665139
234420,-0.341399997472763,15.2606259650704
234530,-0.340571343898773,15.5210451293314
234640,-0.34077849984169,15.312715792149
234740,-0.342850118875504,14.791877463627
234850,-0.339535564184189,14.9481244665139
234960,-0.342642962932587,14.3231214694007
235070,-0.340571343898773,14.4272936307748
235180,-0.340157032012939,14.8960421322182
235290,-0.340985685586929,15.0522891351051
235400,-0.339949876070023,15.1043714694007
235510,-0.34077849984169,15.1043714694007
235620,-0.33932837843895,15.8335391351051
235730,-0.340985685586929,15.8335391351051
235840,-0.34077849984169,16.0418759650704
235950,-0.34160715341568,15.8856289621836
236060,-0.340571343898773,15.833546627888
236160,-0.341399997472763,15.8856289621836
236270,-0.341192841529846,15.6772921322182
236380,-0.340364187955856,15.6252097979226
236490,-0.340157032012939,15.8856289621836
236600,-0.34160715341568,15.3647981264446
236710,-0.340571343898773,15.2606334578534
236820,-0.34160715341568,14.8439672907056
236930,-0.341399997472763,14.8960496250012
237040,-0.341192841529846,14.6877127950358
237150,-0.341192841529846,14.4793759650704
237260,-0.340571343898773,14.4793759650704
237370,-0.341399997472763,14.1668744665139
237470,-0.34160715341568,13.9585376365485
237580,-0.34077849984169,14.1147921322182
237690,-0.340157032012939,14.3752112964792
237800,-0.341399997472763,14.4793759650704
237910,-0.340985685586929,14.7397876365485
238020,-0.34077849984169,14.5835406336617
238130,-0.340985685586929,14.4793684722875
238240,-0.341399997472763,14.2189493080265
238350,-0.339949876070023,14.3751963109133
238460,-0.340364187955856,14.4793609795045
238570,-0.341192841529846,14.5314433138001
238680,-0.34077849984169,14.6876978094699
238790,-0.34077849984169,14.5314508065831
238890,-0.340571343898773,14.5314508065831
239000,-0.340157032012939,14.7397876365485
239110,-0.341192841529846,14.7918699708441
239220,-0.342228621244431,14.4272861379919
239330,-0.339949876070023,14.5835331408787
239440,-0.341399997472763,14.7397801437655
239550,-0.34160715341568,14.5835331408787
239660,-0.341814309358597,14.5314508065831
239770,-0.341814309358597,14.2189493080265
239880,-0.339949876070023,14.5835331408787
239990,-0.340985685586929,14.5314433138001
240100,-0.341192841529846,14.4793609795045
240200,-0.341399997472763,14.4793609795045
240310,-0.341399997472763,14.5314433138001
240420,-0.342021465301514,13.9064478094699
240530,-0.34077849984169,14.1668669737309
240640,-0.341192841529846,14.0626948123567
240750,-0.341814309358597,13.8022756480958
240860,-0.340985685586929,13.7501858210172
240970,-0.34077849984169,13.5939388181304
241080,-0.34160715341568,13.646021152426
241190,-0.341192841529846,13.385601988165
241300,-0.340157032012939,13.385601988165
241410,-0.34077849984169,13.2814373195738
241520,-0.341192841529846,13.385601988165
241620,-0.340985685586929,13.646013659643
241730,-0.340985685586929,13.5939238325645
241840,-0.340157032012939,13.8022606625299
241950,-0.34077849984169,13.9585151581996
242060,-0.340364187955856,14.166851988165
242170,-0.341814309358597,14.0626873195738
242280,-0.340571343898773,14.3231064838348
242390,-0.34160715341568,13.9585226509826
242500,-0.341814309358597,13.5939388181304
242610,-0.34077849984169,13.385609480948
242720,-0.340985685586929,13.0731079823914
242830,-0.34077849984169,13.0210256480958
242930,-0.340571343898773,13.1251978094699
243040,-0.340985685586929,13.4376918152436
243150,-0.341814309358597,13.0731079823914
243260,-0.341399997472763,12.9168534867216
243370,-0.340985685586929,12.7605989910518
243480,-0.341192841529846,12.6564268296777
243590,-0.340571343898773,12.864763659643
243700,-0.339949876070023,13.1772651581996
243810,-0.341399997472763,13.0210106625299
243920,-0.34160715341568,12.9168459939386
244030,-0.340157032012939,12.9168459939386
244140,-0.341399997472763,12.9168459939386
244250,-0.339949876070023,13.0730929968255
244350,-0.34077849984169,12.9168459939386
244460,-0.340571343898773,13.0731004896084
244570,-0.340157032012939,13.2293474924952
244680,-0.340985685586929,13.2293474924952
244790,-0.340985685586929,13.1772576654167
244900,-0.34077849984169,13.3335121610864
245010,-0.340571343898773,13.7501783282342
245120,-0.340985685586929,14.0626723340079
245230,-0.340364187955856,14.4272561668601
245340,-0.340985685586929,14.2710016711903
245450,-0.341192841529846,14.2710016711903
245560,-0.340985685586929,14.2710016711903
245660,-0.340571343898773,14.1668370025991
245770,-0.342228621244431,13.6980885011557
245880,-0.340364187955856,13.9064253311211
245990,-0.340571343898773,14.2189268296777
246100,-0.340985685586929,14.1668370025991
246210,-0.341814309358597,14.1668370025991
246320,-0.340985685586929,13.9585001726337
246430,-0.339949876070023,14.0105825069293
246540,-0.340157032012939,14.1668295098161
246650,-0.34077849984169,14.0626648412249
246760,-0.340571343898773,14.0626648412249
246870,-0.340157032012939,14.2189118441118
246980,-0.340985685586929,14.1147396827376
247080,-0.341192841529846,14.0105675213634
247190,-0.341399997472763,13.9584851870678
247300,-0.339742720127106,14.6355705184766
247410,-0.340364187955856,15.0001543513288
247520,-0.34077849984169,15.0001543513288
247630,-0.340985685586929,15.10431901992
247740,-0.340985685586929,15.3126483571024
247850,-0.341192841529846,15.1563938614327
247960,-0.340985685586929,15.0522217000585
248070,-0.341192841529846,15.1043040343541
248180,-0.34077849984169,15.0522217000585
248290,-0.341192841529846,15.0522217000585
248390,-0.341192841529846,15.1043040343541
248500,-0.339949876070023,15.2605510372409
248610,-0.340364187955856,15.3647157058321
248720,-0.340985685586929,15.8334642072756
248830,-0.340364187955856,15.6251348700931
248940,-0.341192841529846,15.9897187029453
249050,-0.34077849984169,15.9376363686497
249160,-0.339949876070023,15.9897187029453
249270,-0.342021465301514,15.7293070314673
249380,-0.341399997472763,15.3647231986151
249490,-0.34160715341568,15.1563863686497
249600,-0.34077849984169,14.7918025357975
249710,-0.340364187955856,14.9480570314673
249810,-0.340364187955856,15.0522217000585
249920,-0.340157032012939,15.4168055329107
250030,-0.341814309358597,15.1043040343541
250140,-0.340985685586929,15.2084687029453
250250,-0.340571343898773,15.3647231986151
250360,-0.34077849984169,15.2605585300239
250470,-0.340364187955856,15.2084761957283
250580,-0.341399997472763,15.2605585300239
250690,-0.340571343898773,15.2605585300239
250800,-0.340985685586929,15.4168055329107
250910,-0.341814309358597,15.3126408643195
251020,-0.340985685586929,15.3647231986151
251120,-0.341192841529846,15.3647231986151
251230,-0.339742720127106,15.5730525357975
251340,-0.340571343898773,15.7813893657629
251450,-0.341192841529846,15.8855540343541
251560,-0.340364187955856,15.9897187029453
251670,-0.340571343898773,15.8855540343541
251780,-0.34160715341568,15.8334717000585
251890,-0.341814309358597,15.6251423628761
252000,-0.340364187955856,15.7293070314673
252110,-0.34160715341568,15.5730600285805
252220,-0.34077849984169,15.7293145242502
252330,-0.340985685586929,15.4688953599893
252440,-0.34077849984169,15.364730691398
252540,-0.340571343898773,15.5209851870678
252650,-0.34077849984169,15.5209851870678
252760,-0.340985685586929,15.4688953599893
252870,-0.341399997472763,15.2605585300239
252980,-0.340364187955856,15.2084761957283
253090,-0.34077849984169,15.3126483571024
253200,-0.339949876070023,15.8855615271371
253310,-0.341814309358597,15.4168130256937
253420,-0.340985685586929,15.5209776942849
253530,-0.341192841529846,15.6251423628761
253640,-0.341399997472763,15.7293070314673
253750,-0.340364187955856,16.0938908643195
253850,-0.34077849984169,15.8855615271371
253960,-0.341814309358597,15.6772321899546
254070,-0.340985685586929,15.7293145242502
254180,-0.341192841529846,15.7813968585458
254290,-0.340985685586929,15.8855615271371
254400,-0.340364187955856,16.3022276942849
254510,-0.340985685586929,16.2501378672063
254620,-0.341399997472763,16.1980555329107
254730,-0.342228621244431,16.0938908643195
254840,-0.341192841529846,16.0418085300239
254950,-0.340571343898773,16.0938908643195
255060,-0.342021465301514,15.9897261957283
255170,-0.34160715341568,15.8855615271371
255270,-0.341399997472763,15.5730600285805
255380,-0.34077849984169,15.5730600285805
255490,-0.340571343898773,15.7293145242502
255600,-0.341399997472763,15.625149855659
255710,-0.34160715341568,15.4689028527722
255820,-0.340571343898773,15.364738184181
255930,-0.339949876070023,15.5730675213634
256040,-0.340364187955856,15.5730675213634
256150,-0.340364187955856,15.9376513542156
256260,-0.341399997472763,15.7293145242502
256370,-0.340364187955856,16.0418160228068
256480,-0.341814309358597,16.0418160228068
256580,-0.340571343898773,16.0938983571024
256690,-0.340571343898773,16.1980705184766
256800,-0.340571343898773,16.2501528527722
256910,-0.341192841529846,16.0938983571024
257020,-0.34077849984169,16.145988184181
257130,-0.34160715341568,16.1980705184766
257240,-0.341399997472763,16.1980705184766
257350,-0.340571343898773,16.3022426798508
257460,-0.340985685586929,16.3543250141464
257570,-0.339949876070023,16.5105720170332
257680,-0.34160715341568,16.0939058498854
257790,-0.341399997472763,16.0939058498854
257900,-0.340571343898773,16.3543250141464
258000,-0.340571343898773,16.2501603455552
258110,-0.340985685586929,16.3543250141464
258220,-0.339535564184189,16.4584896827376
258330,-0.341192841529846,16.3543175213634
258440,-0.341814309358597,16.0418160228068
258550,-0.340157032012939,16.0418160228068
258660,-0.341192841529846,15.9897336885112
258770,-0.340364187955856,16.145988184181
258880,-0.341192841529846,16.0418160228068
258990,-0.340571343898773,16.0418160228068
259100,-0.341399997472763,15.9376513542156
259210,-0.34077849984169,15.8334866856244
259310,-0.341399997472763,15.7293220170332
259420,-0.342021465301514,15.5209926798508
259530,-0.34077849984169,15.5730825069293
259640,-0.340985685586929,15.4689103455552
259750,-0.340985685586929,15.7814043513288
259860,-0.339949876070023,15.88556901992
259970,-0.340985685586929,15.7813968585458
260080,-0.341399997472763,15.6772321899546
260200,-0.340985685586929,15.8855615271371
260300,-0.342228621244431,15.5730675213634
260410,-0.340985685586929,15.3126483571024
260520,-0.338085442781448,15.8334791928415
260630,-0.29333883523941,27.7605735155898
260730,-0.353415280580521,24.5314013542156
260840,-0.349064916372299,22.2918160228068
260950,-0.342021465301514,22.0314043513288
261060,-0.344507396221161,21.1980720170332
261170,-0.344093084335327,20.5209866856244
261280,-0.34305727481842,19.6876543513288
261390,-0.340571343898773,19.6355720170332
261500,-0.341399997472763,19.4793175213634
261610,-0.340985685586929,19.4793175213634
261720,-0.340571343898773,19.5834896827376
261830,-0.342021465301514,19.3751603455552
261940,-0.339535564184189,19.7397441784074
262040,-0.342021465301514,19.5314148412249
262150,-0.340985685586929,19.4793250141464
262260,-0.34160715341568,19.3751603455552
262370,-0.341399997472763,19.3230780112596
262480,-0.34243580698967,18.6980750141464
262590,-0.342228621244431,18.229326512703
262700,-0.340364187955856,18.3855810083727
262810,-0.342021465301514,17.9689148412249
262920,-0.340571343898773,18.1251693368947
263030,-0.34243580698967,17.7084956769639
263140,-0.34243580698967,17.0834926798508
263250,-0.341192841529846,17.2918220170332
263360,-0.342228621244431,17.0834926798508
263460,-0.341192841529846,17.187657348442
263570,-0.34077849984169,17.187657348442
263680,-0.34077849984169,17.0834926798508
263790,-0.34077849984169,16.9793280112596
263900,-0.342228621244431,16.4584971755205
264010,-0.341399997472763,16.5626618441118
264120,-0.340985685586929,16.5626618441118
264230,-0.341814309358597,16.2501603455552
264340,-0.340571343898773,16.3022426798508
264450,-0.340985685586929,16.145988184181
264560,-0.340157032012939,16.4584896827376
264670,-0.340985685586929,16.3543175213634
264770,-0.34160715341568,16.1980705184766
264880,-0.340985685586929,16.406399855659
264990,-0.340364187955856,16.5626543513288
265100,-0.341399997472763,16.5105720170332
265210,-0.34077849984169,16.2501603455552
265320,-0.341192841529846,16.0939058498854
265430,-0.341192841529846,16.0939058498854
265540,-0.341399997472763,15.8334866856244
265650,-0.341192841529846,15.6772321899546
265760,-0.341192841529846,15.7813968585458
265870,-0.341192841529846,15.9376438614327
265980,-0.340364187955856,15.9376438614327
266090,-0.34077849984169,16.145980691398
266190,-0.341399997472763,15.9897261957283
266300,-0.34077849984169,16.0418160228068
266410,-0.340985685586929,15.9897261957283
266520,-0.341192841529846,15.8334717000585
266630,-0.340985685586929,15.7813818729799
266740,-0.342021465301514,15.5209702015019
266850,-0.34160715341568,15.4688878672063
266960,-0.341399997472763,15.2084687029453
267070,-0.34160715341568,15.0001318729799
267180,-0.342021465301514,14.4793010372409
267290,-0.340571343898773,14.7918025357975
267400,-0.341399997472763,14.6876378672063
267500,-0.340157032012939,14.9480570314673
267610,-0.342228621244431,14.7397276942849
267720,-0.340985685586929,14.5834731986151
267830,-0.342021465301514,14.2709717000585
267940,-0.340571343898773,14.5834731986151
268050,-0.340157032012939,14.7918100285805
268160,-0.340157032012939,15.0522291928415
268270,-0.341399997472763,14.9480645242502
268380,-0.339949876070023,15.0522291928415
268490,-0.34160715341568,14.8959821899546
268600,-0.34160715341568,14.843899855659
268710,-0.34077849984169,15.2084836885112
268820,-0.341192841529846,15.2084836885112
268920,-0.341192841529846,15.0522291928415
269030,-0.34077849984169,15.364730691398
269140,-0.339742720127106,15.8334791928415
269250,-0.34077849984169,15.9897336885112
269360,-0.341814309358597,15.7293145242502
269470,-0.341399997472763,15.5209776942849
269580,-0.340985685586929,15.6251423628761
269690,-0.341814309358597,15.5730600285805
269800,-0.340571343898773,15.5730600285805
269910,-0.34160715341568,15.1563938614327
270020,-0.34160715341568,14.8438923628761
270130,-0.340571343898773,14.7918100285805
270230,-0.340985685586929,14.8959746971717
270340,-0.34077849984169,14.7918100285805
270450,-0.341814309358597,14.7918100285805
270560,-0.340985685586929,14.6876378672063
270670,-0.341814309358597,14.3751363686497
270780,-0.340364187955856,14.4272187029453
270890,-0.34077849984169,14.5313908643195
271000,-0.340571343898773,14.5834731986151
271110,-0.34160715341568,14.5834731986151
271220,-0.340985685586929,14.6876378672063
271330,-0.340364187955856,14.7397202015019
271440,-0.339742720127106,15.0522217000585
271550,-0.341192841529846,14.7397202015019
271650,-0.341192841529846,14.8438848700931
271760,-0.340985685586929,14.9480495386843
271870,-0.340985685586929,14.8438773773102
271980,-0.341814309358597,14.5313758787536
272090,-0.340364187955856,14.6876303744234
272200,-0.340571343898773,14.4272187029453
272310,-0.341814309358597,14.2709717000585
272420,-0.339742720127106,14.7918025357975
272530,-0.340985685586929,14.5834657058321
272640,-0.340985685586929,14.6355480401278
272750,-0.340571343898773,14.5834657058321
272860,-0.341399997472763,14.5313833715365
272960,-0.341399997472763,14.3230465415712
273070,-0.342850118875504,13.958462708719
273180,-0.340571343898773,14.0105450430146
273290,-0.34077849984169,14.1667995386843
273400,-0.34160715341568,14.2709642072756
273510,-0.34077849984169,14.2709642072756
273620,-0.34077849984169,14.3230540343541
273730,-0.341814309358597,14.1147246971717
273840,-0.341814309358597,13.6459761957283
273950,-0.341192841529846,13.5938938614327
274060,-0.342228621244431,13.3855645242502
274170,-0.340571343898773,13.4897366856244
274280,-0.340364187955856,13.9584851870678
274380,-0.339949876070023,14.2189043513288
274490,-0.339742720127106,13.802238184181
274600,-0.340364187955856,1.97930853002388
274710,-0.341192841529846,5.05222619572827
274820,-0.341399997472763,6.97931002858047
274930,-0.340985685586929,7.2397217000585
275040,-0.34160715341568,7.9688893657629
275150,-0.341399997472763,8.64597469717168
275260,-0.34160715341568,9.01055853002388
275370,-0.341192841529846,8.85430403435411
275480,-0.341192841529846,8.90638636864972
275590,-0.341814309358597,8.69805703146729
275690,-0.340571343898773,8.69805703146729
275800,-0.340985685586929,8.95846870294532
275910,-0.34243580698967,8.22930103724093
276020,-0.339949876070023,8.75013187297995
276130,-0.340985685586929,8.75013187297995
276240,-0.33932837843895,9.32305253579752
276350,-0.340571343898773,9.5313893657629
276460,-0.34077849984169,9.94806302569365
276570,-0.340157032012939,10.4688938614327
276680,-0.340985685586929,10.3126393657629
276790,-0.339535564184189,10.9376348700931
276900,-0.341399997472763,10.7292980401278
277010,-0.341399997472763,10.9897172043887
277110,-0.341814309358597,11.1459717000585
277220,-0.339949876070023,11.4584731986151
277330,-0.34077849984169,11.8230570314673
277440,-0.340985685586929,11.8751393657629
277550,-0.340364187955856,11.9793040343541
277660,-0.342228621244431,11.6147202015019
277770,-0.341192841529846,11.5105480401278
277880,-0.340364187955856,11.9792965415712
277990,-0.34160715341568,11.9272142072756
278100,-0.34077849984169,11.9793040343541
278210,-0.34077849984169,12.2397231986151
278320,-0.341399997472763,12.0313863686497
278420,-0.340157032012939,12.2397231986151
278530,-0.340985685586929,12.0313863686497
278640,-0.34160715341568,11.8751393657629
278750,-0.341192841529846,11.9793040343541
278860,-0.340571343898773,12.0834761957283
278970,-0.340571343898773,12.0313938614327
279080,-0.340985685586929,12.1355585300239
279190,-0.340571343898773,12.1876408643195
279300,-0.34077849984169,12.2918130256937
279410,-0.340157032012939,12.5522321899546
279520,-0.341814309358597,12.4480675213634
279630,-0.340571343898773,12.6043220170332
279740,-0.34160715341568,12.500157348442
279840,-0.341814309358597,12.3439103455552
279950,-0.339742720127106,12.500157348442
280060,-0.340985685586929,12.4480675213634
280170,-0.340571343898773,12.6564043513288
280280,-0.341192841529846,12.5522321899546
280390,-0.339535564184189,12.9168160228068
280500,-0.340985685586929,12.9688983571024
280610,-0.341192841529846,12.9168160228068
280720,-0.340364187955856,13.3334821899546
280830,-0.342228621244431,13.1772351870678
280940,-0.341814309358597,13.0730705184766
281050,-0.33932837843895,13.6459911812942
281150,-0.340571343898773,14.0105750141464
281260,-0.340985685586929,13.9064028527722
281370,-0.340985685586929,14.0105675213634
281480,-0.340364187955856,13.9584851870678
281590,-0.341192841529846,14.2188968585458
281700,-0.340364187955856,14.3751513542156
281810,-0.340571343898773,14.7397351870678
281920,-0.340571343898773,14.7397351870678
282030,-0.342228621244431,14.2189043513288
282140,-0.341192841529846,13.9584851870678
282250,-0.339535564184189,14.4272336885112
282360,-0.34160715341568,14.0105675213634
282470,-0.34160715341568,14.0105675213634
282570,-0.341192841529846,14.1147321899546
282680,-0.340364187955856,14.2188968585458
282790,-0.341192841529846,14.2188968585458
282900,-0.34077849984169,14.32306901992
283010,-0.340985685586929,14.2709791928415
283120,-0.341814309358597,13.7501483571024
283230,-0.339949876070023,13.9584776942849
283340,-0.341192841529846,14.1147246971717
283450,-0.341192841529846,14.1668070314673
283560,-0.342228621244431,13.8543130256937
283670,-0.340571343898773,14.1668145242502
283780,-0.340985685586929,14.0626423628761
283890,-0.340571343898773,14.3230615271371
283990,-0.340571343898773,14.583480691398
284100,-0.342228621244431,14.1668145242502
284210,-0.340571343898773,14.2709866856244
284320,-0.340985685586929,14.2188968585458
284430,-0.340571343898773,14.5313983571024
284540,-0.340571343898773,14.6355705184766
284650,-0.340157032012939,15.0522366856244
284760,-0.34160715341568,14.7397351870678
284870,-0.340985685586929,14.6876453599893
284980,-0.341399997472763,14.4793085300239
285090,-0.341399997472763,14.5313908643195
285200,-0.340985685586929,14.5313908643195
285300,-0.34160715341568,14.2188893657629
285410,-0.340985685586929,13.9063878672063
285520,-0.34160715341568,13.8022231986151
285630,-0.340157032012939,14.0626423628761
285740,-0.340571343898773,14.1668145242502
285850,-0.341192841529846,14.1147321899546
285960,-0.340157032012939,14.5313983571024
286070,-0.340571343898773,14.4793160228068
286180,-0.341192841529846,14.3230615271371
286290,-0.339949876070023,14.7918100285805
286400,-0.341192841529846,14.4272261957283
286510,-0.341399997472763,14.3230615271371
286620,-0.341192841529846,14.2709791928415
286720,-0.341399997472763,14.0626423628761
286830,-0.340985685586929,14.1668070314673
286940,-0.341399997472763,14.1668070314673
287050,-0.34160715341568,14.4793085300239
287160,-0.34077849984169,14.4272261957283
287270,-0.341399997472763,14.2709717000585
287380,-0.342228621244431,14.1147246971717
287490,-0.342228621244431,13.7501408643195
287600,-0.340571343898773,13.8022231986151
287710,-0.340364187955856,14.1668070314673
287820,-0.341192841529846,14.3230540343541
287930,-0.341399997472763,14.2709717000585
288030,-0.341192841529846,14.5313833715365
288140,-0.340364187955856,14.5834657058321
288250,-0.34243580698967,14.0626273773102
288360,-0.341399997472763,13.698043544458
288470,-0.341192841529846,13.3334597116058
288580,-0.33932837843895,13.5938788758668
288690,-0.34077849984169,13.6980510372409
288800,-0.340571343898773,13.9063878672063
288910,-0.340985685586929,13.9063878672063
289020,-0.341192841529846,14.0105525357975
289130,-0.341192841529846,14.0626348700931
289240,-0.341192841529846,14.1667995386843
289350,-0.341814309358597,14.0105525357975
289450,-0.34077849984169,14.1147246971717
289560,-0.34160715341568,14.1668070314673
289670,-0.340985685586929,14.0626348700931
289780,-0.341192841529846,14.0105525357975
289890,-0.340985685586929,14.3751363686497
290000,-0.339121222496033,14.5834731986151
290110,-0.341814309358597,14.3751438614327
290220,-0.34160715341568,13.8022231986151
290330,-0.340985685586929,13.6980510372409
290440,-0.34077849984169,13.6980510372409
290550,-0.340985685586929,13.4897142072756
290660,-0.341192841529846,13.4376318729799
290760,-0.34077849984169,13.1251378672063
290870,-0.34077849984169,13.2813923628761
290980,-0.341399997472763,13.2813923628761
291090,-0.340571343898773,13.5938938614327
291200,-0.340571343898773,13.4376468585458
291310,-0.340985685586929,13.3855570314673
291420,-0.339949876070023,13.6459761957283
291530,-0.341192841529846,13.4376393657629
291640,-0.34160715341568,13.5938863686497
291750,-0.34077849984169,13.6980585300239
291860,-0.341399997472763,13.4376393657629
291970,-0.340364187955856,13.7501408643195
292080,-0.340157032012939,13.9063878672063
292180,-0.34160715341568,13.6980510372409
292290,-0.340985685586929,13.8022157058321
292400,-0.340157032012939,13.8022157058321
292510,-0.341814309358597,13.5938863686497
292620,-0.340364187955856,13.9063878672063
292730,-0.34160715341568,13.8022231986151
292840,-0.342228621244431,13.3855570314673
292950,-0.34160715341568,13.1251378672063
293060,-0.340157032012939,13.3334746971717
293170,-0.340364187955856,13.3855570314673
293280,-0.340985685586929,13.3334672043887
293390,-0.341192841529846,13.0730480401278
293490,-0.34077849984169,13.3334672043887
293600,-0.341192841529846,13.177212708719
293710,-0.340571343898773,13.4376318729799
293820,-0.340364187955856,13.8022157058321
293930,-0.340157032012939,13.6980510372409
294040,-0.340364187955856,13.8543055329107
294150,-0.340571343898773,13.8543055329107
294260,-0.340985685586929,13.9063878672063
294370,-0.341399997472763,13.4376393657629
294480,-0.341192841529846,13.3855570314673
294590,-0.34077849984169,13.4897291928415
294700,-0.341192841529846,13.2813923628761
294810,-0.339949876070023,13.8543055329107
294910,-0.34077849984169,14.1147246971717
295020,-0.341192841529846,13.6459687029453
295130,-0.341399997472763,13.4376318729799
295240,-0.340571343898773,13.5418040343541
295350,-0.340364187955856,13.6980585300239
295460,-0.341399997472763,13.4376393657629
295570,-0.341192841529846,13.4376393657629
295680,-0.340571343898773,13.3855570314673
295790,-0.340364187955856,13.4376393657629
295900,-0.341192841529846,13.2813848700931
296010,-0.341192841529846,13.5417965415712
296120,-0.340157032012939,13.8022157058321
296220,-0.340571343898773,13.5418040343541
296330,-0.341814309358597,13.4897217000585
296440,-0.340985685586929,13.6459687029453
296550,-0.339949876070023,13.9584702015019
296660,-0.340364187955856,13.9584702015019
296770,-0.342228621244431,13.6980585300239
296880,-0.34160715341568,13.4897217000585
296990,-0.340985685586929,13.4897217000585
297100,-0.340571343898773,13.8022231986151
297210,-0.340364187955856,13.6980585300239
297320,-0.340571343898773,13.8543130256937
297430,-0.34077849984169,13.9584851870678
297540,-0.340157032012939,14.4793160228068
297640,-0.34160715341568,14.2188968585458
297750,-0.340571343898773,14.32306901992
297860,-0.341192841529846,14.1668145242502
297970,-0.341399997472763,13.9584776942849
298080,-0.340985685586929,14.2709717000585
298190,-0.34077849984169,14.2188893657629
298300,-0.340364187955856,14.3751438614327
298410,-0.34077849984169,14.3230615271371
298520,-0.342021465301514,13.9584776942849
298630,-0.341192841529846,13.6980585300239
298740,-0.34160715341568,13.6980585300239
298850,-0.342021465301514,13.4376468585458
298950,-0.34160715341568,13.3855645242502
299060,-0.34077849984169,13.54181901992
299170,-0.341192841529846,13.4897366856244
299280,-0.340985685586929,13.6459836885112
299390,-0.341814309358597,13.4376543513288
299500,-0.340364187955856,13.7501558498854
299610,-0.340985685586929,13.54181901992
299720,-0.342228621244431,13.1251528527722
299830,-0.34160715341568,13.020988184181
299940,-0.341399997472763,12.7084866856244
300050,-0.340985685586929,12.6043145242502
300160,-0.341192841529846,12.6043145242502
300270,-0.339535564184189,12.7084791928415
300370,-0.341192841529846,12.7084791928415
300480,-0.340571343898773,12.9168160228068
300590,-0.342021465301514,12.7084866856244
300700,-0.342228621244431,12.500157348442
300810,-0.341192841529846,12.4480750141464
300920,-0.34160715341568,12.3959926798508
301030,-0.34077849984169,12.6043295098161
301140,-0.34077849984169,12.6043295098161
301250,-0.340571343898773,12.8126663397815
301360,-0.342228621244431,12.8126663397815
301470,-0.34077849984169,13.1772501726337
301580,-0.341399997472763,12.9689133426683
301680,-0.341399997472763,12.7084941784074
301790,-0.34160715341568,12.6043295098161
301900,-0.340571343898773,12.8126663397815
302010,-0.340985685586929,12.8647486740771
302120,-0.340157032012939,12.9168310083727
302230,-0.341192841529846,13.2293325069293
302340,-0.34160715341568,13.1772501726337
302450,-0.340985685586929,13.2293325069293
302560,-0.340985685586929,12.8126588469986
302670,-0.341814309358597,12.5522396827376
302780,-0.340985685586929,12.4480675213634
302890,-0.339949876070023,12.7084866856244
303000,-0.340985685586929,12.76056901992
303100,-0.341192841529846,12.76056901992
303210,-0.340985685586929,12.8126513542156
303320,-0.340571343898773,13.1251528527722
303430,-0.340985685586929,13.0730630256937
303540,-0.341192841529846,13.1772276942849
303650,-0.340571343898773,13.281399855659
303760,-0.34077849984169,13.3855720170332
303870,-0.340364187955856,13.541826512703
303980,-0.340571343898773,13.1772426798508
304090,-0.341399997472763,13.281407348442
304200,-0.341192841529846,13.3855720170332
304310,-0.34077849984169,13.4376618441118
304410,-0.341399997472763,13.281407348442
304520,-0.34077849984169,13.3334971755205
304630,-0.340571343898773,13.4897516711903
304740,-0.34077849984169,13.4897516711903
304850,-0.340985685586929,13.4376618441118
304960,-0.341814309358597,13.3334971755205
305070,-0.341399997472763,13.1251603455552
305180,-0.340571343898773,13.1251603455552
305290,-0.340364187955856,13.2814148412249
305400,-0.340985685586929,13.0209956769639
305510,-0.340985685586929,13.0730780112596
305620,-0.341192841529846,13.1772426798508
305730,-0.341192841529846,13.0730705184766
305830,-0.340985685586929,13.1772351870678
305940,-0.341192841529846,12.9688983571024
306050,-0.339535564184189,13.1251453599893
306160,-0.340985685586929,13.2813923628761
306270,-0.340364187955856,13.4376468585458
306380,-0.340985685586929,13.2293100285805
306490,-0.340985685586929,13.4376393657629
306600,-0.341399997472763,13.1772202015019
306710,-0.340571343898773,13.4376393657629
306820,-0.341192841529846,13.6980510372409
