time,raw,transformed
7180,-0.342850118875504,0
7290,-0.340571343898773,0
7400,-0.342228621244431,0
7510,-0.34243580698967,0
7620,-0.340985685586929,0
7730,-0.342642962932587,0
7840,-0.342850118875504,0
7950,-0.34160715341568,0
8050,-0.34305727481842,0
8160,-0.340985685586929,50.000143862122
8270,-0.34305727481842,45.4546762382932
8380,-0.34160715341568,47.5001558506336
8490,-0.341814309358597,48.4617265889284
8600,-0.34243580698967,47.1430010049789
8710,-0.342850118875504,44.6667913471738
8820,-0.34160715341568,46.2501438621225
8930,-0.341814309358597,47.0589927789686
9040,-0.342228621244431,46.6668744675115
9150,-0.34243580698967,45.7896478330967
9260,-0.34243580698967,45.0001438621236
9360,-0.342228621244431,44.7620828769129
9470,-0.34243580698967,44.0910594922195
9580,-0.34160715341568,45.2175539310944
9690,-0.342228621244431,45.0001918161643
9800,-0.341814309358597,45.6002071614567
9910,-0.342228621244431,45.3848477772755
10020,-0.341399997472763,46.6669011086428
10130,-0.342021465301514,46.7859660444299
10240,-0.342228621244431,46.5519969798889
10350,-0.34243580698967,46.0002493610112
10460,-0.342642962932587,45.1615223582632
10570,-0.34160715341568,45.9377382716405
10680,-0.344507396221161,66.1321215095888
10780,-0.340985685586929,67.128235582836
10890,-0.342642962932587,66.7228896145114
11000,-0.34305727481842,66.0132710120438
11110,-0.34243580698967,65.8189496353478
11220,-0.34243580698967,65.6348556995315
11330,-0.343264430761337,64.8568944391033
11440,-0.34243580698967,64.7060565799829
11550,-0.343264430761337,63.9886982863937
11660,-0.343264430761337,63.3054999115468
11770,-0.34160715341568,63.748470607823
11880,-0.341399997472763,64.304993849333
11990,-0.342228621244431,64.3139157571884
12090,-0.341192841529846,64.9618251237088
12200,-0.342228621244431,64.9563922424116
12310,-0.34305727481842,64.460980319148
12420,-0.342850118875504,64.1058352781144
12530,-0.34305727481842,63.6472509710671
12640,-0.34243580698967,63.5526652672094
12750,-0.342228621244431,63.5748540063553
12860,-0.342228621244431,63.5962054345895
12970,-0.342642962932587,63.3988891615686
13080,-0.34243580698967,63.3156980872541
13190,-0.342228621244431,63.3405334732459
13300,-0.343471586704254,62.7452980291533
13410,-0.342228621244431,62.7791115062853
13510,-0.34305727481842,62.4129675811901
13620,-0.34305727481842,62.0590284535988
13730,-0.34305727481842,61.7166938875678
13840,-0.341814309358597,61.9546663485505
13950,-0.341192841529846,62.4651914321798
14060,-0.343264430761337,62.0406472932833
14170,-0.342021465301514,62.172156305474
14280,-0.342021465301514,62.2996801960821
14390,-0.341814309358597,62.5111922299998
14500,-0.342850118875504,62.2839522458607
14610,-0.341814309358597,62.489561437494
14720,-0.342228621244431,62.5212316984273
14820,-0.341814309358597,62.7177071177245
14930,-0.342021465301514,62.8270269228343
15040,-0.34243580698967,62.7721824454574
15150,-0.34243580698967,62.7188202512528
15260,-0.34160715341568,62.9806125125883
15370,-0.342228621244431,63.0033212914058
15480,-0.34388592839241,62.4142750427991
15590,-0.342021465301514,62.5190757869374
15700,-0.341814309358597,62.6956822512613
15810,-0.342228621244431,62.7208172194061
15920,-0.34160715341568,62.9631928074553
16030,-0.34243580698967,62.9127072863188
16140,-0.342642962932587,62.7925677610798
16240,-0.344093084335327,62.1850908444685
16350,-0.34305727481842,61.9379323630713
16460,-0.341814309358597,62.1069213642971
16570,-0.342228621244431,62.1368013452
16680,-0.34243580698967,62.0991488307579
16790,-0.341814309358597,62.2606301525309
16900,-0.341399997472763,62.5492397423277
17010,-0.341399997472763,62.8315062642177
17120,-0.343471586704254,62.4682519913449
17230,-0.342228621244431,62.4923189559844
17340,-0.341399997472763,62.7661825121361
17450,-0.34243580698967,62.7246793285797
17550,-0.34305727481842,62.5002203764659
17660,-0.342642962932587,62.4016730188886
17770,-0.341192841529846,62.7253064229525
17880,-0.342642962932587,62.6264763246543
17990,-0.343264430761337,62.3531552268358
18100,-0.34160715341568,62.5511758666836
18210,-0.341814309358597,62.6876445980746
18320,-0.342228621244431,62.7072449388959
18430,-0.34243580698967,62.6699000844299
18540,-0.34160715341568,62.8573604631619
18650,-0.34077849984169,63.2632636628346
18760,-0.34305727481842,63.0568464316472
18870,-0.343471586704254,62.7453211235761
18970,-0.342850118875504,62.6014087583014
19080,-0.342850118875504,62.4601129814844
19190,-0.341814309358597,62.5863370669545
19300,-0.342850118875504,62.447698997682
19410,-0.342850118875504,62.3115146995491
19520,-0.342228621244431,62.3325231644893
19630,-0.341399997472763,62.557766382488
19740,-0.342228621244431,62.5762897731806
19850,-0.342850118875504,62.4436622820299
19960,-0.342021465301514,62.5126883057892
20070,-0.342228621244431,62.5311235276128
20180,-0.342850118875504,62.40218810912
20280,-0.342021465301514,62.4698455056204
20390,-0.343471586704254,62.1988804863945
20500,-0.343471586704254,61.9323214024394
20610,-0.34388592839241,61.5751797794241
20720,-0.342642962932587,61.5061073547214
20830,-0.342642962932587,61.4381313177099
20940,-0.342228621244431,61.4638663443641
21050,-0.341399997472763,61.6730196794422
21160,-0.34305727481842,61.6270645748885
21270,-0.341814309358597,61.3513273362726
21380,-0.34160715341568,61.4891926499336
21490,-0.342021465301514,61.5811094703349
21600,-0.34243580698967,61.2594171271653
21700,-0.34243580698967,61.305372231719
21810,-0.342021465301514,61.4891992612276
21920,-0.342642962932587,61.2594171271653
22030,-0.342642962932587,61.3513273362726
22140,-0.340364187955856,61.4891992612276
22250,-0.342228621244431,61.6730262907361
22360,-0.342642962932587,61.4432441566739
22470,-0.34243580698967,61.305372231719
22580,-0.342642962932587,61.2594171271653
22690,-0.342228621244431,61.3972890521203
22800,-0.342850118875504,61.1215518135044
22910,-0.34243580698967,60.9836798885494
23010,-0.340571343898773,61.3513273362726
23120,-0.34243580698967,61.3513273362726
23230,-0.342850118875504,61.2594171271653
23340,-0.341192841529846,61.4891926499336
23450,-0.34243580698967,61.4891926499336
23560,-0.342642962932587,61.2594105158713
23670,-0.343264430761337,61.0296283818091
23780,-0.342021465301514,60.9836732772555
23890,-0.342642962932587,60.8917564568542
24000,-0.341399997472763,60.8917564568542
24110,-0.34243580698967,60.7998396364529
24220,-0.34160715341568,60.9377049501138
24330,-0.342021465301514,61.0296217705151
24430,-0.342228621244431,61.1215385909164
24540,-0.340985685586929,61.2594039045773
24650,-0.341399997472763,61.94874369547
24760,-0.34305727481842,61.4891860386396
24870,-0.34243580698967,61.5351411431932
24980,-0.342850118875504,61.5810962477469
25090,-0.342642962932587,61.5351411431932
25200,-0.34305727481842,61.3972758295323
25310,-0.342228621244431,61.6270579635945
25420,-0.341192841529846,61.9027952022104
25530,-0.342642962932587,62.0406605158713
25640,-0.341399997472763,62.4542630681482
25740,-0.342021465301514,62.3623528590409
25850,-0.342021465301514,62.2244875453799
25960,-0.343471586704254,61.948750306764
26070,-0.342228621244431,61.7189747839958
26180,-0.342228621244431,61.7189747839958
26290,-0.342228621244431,61.9028018135044
26400,-0.342228621244431,62.0406737384593
26510,-0.34243580698967,62.1785390521203
26620,-0.341814309358597,62.3164109770752
26730,-0.342228621244431,62.3164109770752
26840,-0.34305727481842,62.1325839475666
26950,-0.342228621244431,62.2245007679679
27060,-0.342642962932587,62.1785456634143
27160,-0.343264430761337,61.948763529352
27270,-0.340364187955856,62.6381033202447
27380,-0.342228621244431,62.6381033202447
27490,-0.342642962932587,62.730013529352
27600,-0.34160715341568,63.0517058725216
27710,-0.342228621244431,63.2355329020301
27820,-0.342021465301514,63.1895777974765
27930,-0.34243580698967,62.9138405588606
28040,-0.342642962932587,63.0517058725216
28150,-0.342850118875504,62.867878843013
28260,-0.342228621244431,62.8219237384593
28370,-0.342850118875504,62.5921416043971
28470,-0.341399997472763,62.9138339475666
28580,-0.342642962932587,62.730006918058
28690,-0.341399997472763,62.9138273362726
28800,-0.343471586704254,62.5461798885494
28910,-0.34305727481842,62.3163977544872
29020,-0.34243580698967,62.3163977544872
29130,-0.34305727481842,62.1785324408263
29240,-0.343471586704254,61.7649298885494
29350,-0.342850118875504,61.6270579635945
29460,-0.341814309358597,62.086622231719
29570,-0.342228621244431,62.0406671271653
29680,-0.34305727481842,61.7649298885494
29790,-0.342850118875504,61.6270579635945
29890,-0.342021465301514,61.5351477544872
30000,-0.343678742647171,61.2594171271653
30110,-0.342228621244431,61.3513339475666
30220,-0.342850118875504,61.6270711861825
30330,-0.342850118875504,61.6730262907361
30440,-0.34243580698967,61.5351543657812
30550,-0.341814309358597,61.6270645748885
30660,-0.34305727481842,61.4891992612276
30770,-0.341399997472763,61.5811094703349
30880,-0.342228621244431,61.3972890521203
30990,-0.34160715341568,61.3513339475666
31100,-0.34388592839241,61.2594171271653
31200,-0.34243580698967,61.2134554113177
31310,-0.342850118875504,60.8917630681482
31420,-0.343471586704254,60.6619875453799
31530,-0.342850118875504,60.7079426499336
31640,-0.341399997472763,60.9836798885494
31750,-0.34243580698967,60.7079426499336
31860,-0.342850118875504,60.6619875453799
31970,-0.34243580698967,60.8458079635945
32080,-0.341814309358597,60.7998528590409
32190,-0.342021465301514,60.7538977544872
32300,-0.342228621244431,60.7538977544872
32410,-0.34160715341568,60.9377247839958
32520,-0.341814309358597,60.8917696794422
32620,-0.342021465301514,60.6160324408263
32730,-0.342642962932587,60.7079426499336
32840,-0.341192841529846,61.2134554113177
32950,-0.34305727481842,61.167500306764
33060,-0.341192841529846,61.5351477544872
33170,-0.342228621244431,61.4432375453799
33280,-0.34160715341568,61.7189747839958
33390,-0.34243580698967,61.8108849931031
33500,-0.34243580698967,61.7649232772555
33610,-0.34243580698967,61.5351411431932
33720,-0.341192841529846,61.7649166659615
33830,-0.341399997472763,62.086609009131
33930,-0.343264430761337,61.8108717705151
34040,-0.343264430761337,61.5810896364529
34150,-0.342642962932587,61.6270447410065
34260,-0.34243580698967,61.5351279206052
34370,-0.342021465301514,61.8568202637748
34480,-0.342850118875504,61.9946855774357
34590,-0.34160715341568,62.5002049501138
34700,-0.341192841529846,62.8218972932833
34810,-0.341814309358597,63.0057243227919
34920,-0.34243580698967,62.9597626069443
35030,-0.341814309358597,62.867852397837
35140,-0.343264430761337,62.8218972932833
35250,-0.341814309358597,62.8218972932833
35350,-0.342021465301514,62.7299870841761
35460,-0.342850118875504,62.5461600546675
35570,-0.34243580698967,62.5461600546675
35680,-0.342642962932587,62.5002049501138
35790,-0.341399997472763,62.6380702637748
35900,-0.342228621244431,62.7299870841761
36010,-0.341814309358597,62.9138141136846
36120,-0.341192841529846,62.7299870841761
36230,-0.341814309358597,62.8218972932833
36340,-0.342228621244431,62.9138141136846
36450,-0.341814309358597,63.0516860386396
36560,-0.34243580698967,63.0976411431932
36660,-0.341814309358597,63.1895513523005
36770,-0.342850118875504,63.1895513523005
36880,-0.34243580698967,63.1895513523005
36990,-0.34243580698967,62.7759421887297
37100,-0.342850118875504,62.6840319796224
37210,-0.34243580698967,62.7759421887297
37320,-0.342228621244431,62.5461666659615
37430,-0.342850118875504,62.4542564568542
37540,-0.342228621244431,62.5461732772555
37650,-0.343264430761337,62.5461732772555
37760,-0.342021465301514,62.5461732772555
37870,-0.34305727481842,62.4542630681482
37980,-0.342228621244431,62.2704426499336
38080,-0.342021465301514,62.3623594703349
38190,-0.34388592839241,61.8568400976568
38300,-0.340985685586929,62.086615620425
38410,-0.342228621244431,62.086615620425
38520,-0.341814309358597,61.9027952022104
38630,-0.34243580698967,61.6730130681482
38740,-0.34243580698967,61.8108783818091
38850,-0.342021465301514,61.9027952022104
38960,-0.341814309358597,62.1325773362726
39070,-0.34243580698967,62.1785324408263
39180,-0.34077849984169,62.6840518135044
39290,-0.342228621244431,62.6840518135044
39390,-0.342850118875504,62.3164043657812
39500,-0.342642962932587,62.3164043657812
39610,-0.342021465301514,62.1785390521203
39720,-0.34243580698967,62.086622231719
39830,-0.34243580698967,61.9947054113177
39940,-0.342642962932587,62.1785258295323
40050,-0.342850118875504,62.0406539045773
40160,-0.342642962932587,61.9487370841761
40270,-0.341399997472763,62.1325575023906
40380,-0.343471586704254,61.8568202637748
40490,-0.342228621244431,61.9027819796224
40600,-0.34243580698967,61.7649100546675
40710,-0.341814309358597,61.8568202637748
40810,-0.342642962932587,61.9487304728821
40920,-0.341814309358597,62.0406406819894
41030,-0.34305727481842,61.9487304728821
41140,-0.343471586704254,61.9027753683284
41250,-0.34243580698967,61.4432111002039
41360,-0.343264430761337,61.2134289661417
41470,-0.34243580698967,61.2593840706954
41580,-0.342021465301514,61.1674738615881
41690,-0.34243580698967,61.1215121457404
41800,-0.342228621244431,61.0755570411868
41910,-0.342642962932587,61.0296019366331
42020,-0.341814309358597,61.2134289661417
42120,-0.341814309358597,61.4432111002039
42230,-0.34305727481842,61.2593840706954
42340,-0.34243580698967,61.3512942798027
42450,-0.341814309358597,61.2593840706954
42560,-0.340985685586929,61.6270315184185
42670,-0.342228621244431,61.4432111002039
42780,-0.342850118875504,61.5810764138649
42890,-0.342642962932587,61.6729866229722
43000,-0.342850118875504,61.5810764138649
43110,-0.342021465301514,61.8108585479271
43220,-0.341399997472763,62.2704162047576
43330,-0.344093084335327,61.9946789661417
43440,-0.342021465301514,61.9487238615881
43540,-0.34243580698967,61.9027621457404
43650,-0.342021465301514,62.1325442798027
43760,-0.344093084335327,61.8568070411868
43870,-0.34243580698967,61.7648902207855
43980,-0.34243580698967,62.0406208481074
44090,-0.342850118875504,61.9027489231524
44200,-0.342228621244431,62.0406208481074
44310,-0.341399997472763,62.3623131912769
44420,-0.341814309358597,62.5001851162318
44530,-0.34243580698967,62.3623131912769
44640,-0.342021465301514,62.5920953253391
44750,-0.341814309358597,62.5001851162318
44850,-0.341399997472763,62.6840055344464
44960,-0.343471586704254,62.2704029821696
45070,-0.340571343898773,63.00570448891
45180,-0.34243580698967,63.00570448891
45290,-0.34160715341568,63.2814417275258
45400,-0.34243580698967,63.5112172502941
45510,-0.342642962932587,63.5571723548477
45620,-0.342642962932587,63.2814351162318
45730,-0.342228621244431,63.3273968320795
45840,-0.342642962932587,63.3733519366331
45950,-0.341814309358597,63.5112238615881
46060,-0.341192841529846,63.649089175249
46170,-0.342642962932587,63.5112172502941
46270,-0.342021465301514,63.5571723548477
46380,-0.342228621244431,63.4193070411868
46490,-0.34160715341568,63.4652621457404
46600,-0.342642962932587,63.3273902207855
46710,-0.34160715341568,63.5571723548477
46820,-0.34160715341568,63.4652621457404
46930,-0.34243580698967,63.6031274594014
47040,-0.341814309358597,63.4652621457404
47150,-0.34243580698967,63.4193004298928
47260,-0.342228621244431,63.2814351162318
47370,-0.34160715341568,63.4652621457404
47480,-0.342228621244431,63.5112238615881
47580,-0.342228621244431,63.5571855774357
47690,-0.342642962932587,63.2354932342662
47800,-0.342228621244431,63.0516728160516
47910,-0.342642962932587,63.1895381297125
48020,-0.341814309358597,63.5112304728821
48130,-0.341814309358597,63.6950575023906
48240,-0.341814309358597,63.8329294273456
48350,-0.341399997472763,63.9707947410065
48460,-0.342642962932587,64.0167498455602
48570,-0.34160715341568,64.0167498455602
48680,-0.343264430761337,63.5571921887297
48790,-0.342228621244431,63.4652819796224
48900,-0.341814309358597,63.6031539045773
49000,-0.34160715341568,63.649109009131
49110,-0.34243580698967,63.8329294273456
49220,-0.341814309358597,63.8329294273456
49330,-0.342228621244431,63.7869743227919
49440,-0.34243580698967,63.8788845318992
49550,-0.34243580698967,63.8788845318992
49660,-0.342228621244431,63.9708013523005
49770,-0.34160715341568,63.9248462477469
49880,-0.34243580698967,63.8788845318992
49990,-0.34160715341568,63.9248396364529
50100,-0.341814309358597,63.7869743227919
50210,-0.342228621244431,63.6950641136846
50310,-0.342021465301514,63.7410192182383
50420,-0.342021465301514,63.6950641136846
50530,-0.343678742647171,63.4193334863628
50640,-0.34243580698967,63.2814615614078
50750,-0.342228621244431,63.4193334863628
50860,-0.34243580698967,63.4193334863628
50970,-0.34243580698967,63.4193334863628
51080,-0.343264430761337,63.3274232772555
51190,-0.343264430761337,63.1436028590409
51300,-0.341192841529846,63.3733783818091
51410,-0.343264430761337,63.2814681727018
51520,-0.341814309358597,63.3733783818091
51630,-0.342642962932587,63.51124369547
51730,-0.34243580698967,63.4193268750688
51840,-0.34243580698967,63.5571921887297
51950,-0.342021465301514,63.6031472932833
52060,-0.341814309358597,63.649102397837
52170,-0.34077849984169,64.3384488000237
52280,-0.340364187955856,64.4763207249786
52390,-0.342021465301514,64.5222758295323
52500,-0.34243580698967,64.3844039045774
52610,-0.34243580698967,64.3844039045774
52720,-0.34160715341568,64.5682309340859
52830,-0.341814309358597,64.6141860386396
52940,-0.34160715341568,64.6601411431932
53040,-0.341399997472763,64.8899232772555
53150,-0.34305727481842,64.3844039045774
53260,-0.342850118875504,64.2465319796224
53370,-0.34388592839241,64.0167498455602
53480,-0.34243580698967,64.0627049501138
53590,-0.342850118875504,63.8788779206052
53700,-0.34243580698967,63.8788779206052
53810,-0.341814309358597,64.0167498455602
53920,-0.341814309358597,64.2005768750688
54030,-0.342021465301514,64.3844039045774
54140,-0.342228621244431,64.4763207249786
54250,-0.343678742647171,63.9708079635945
54360,-0.34305727481842,64.0627181727018
54460,-0.342228621244431,64.0627181727018
54570,-0.34305727481842,63.9248528590409
54680,-0.342642962932587,63.7410258295323
54790,-0.342642962932587,63.7410258295323
54900,-0.342228621244431,63.649115620425
55010,-0.342642962932587,63.7410258295323
55120,-0.341814309358597,64.1086732772555
55230,-0.342850118875504,64.0167630681482
55340,-0.340985685586929,64.5222758295323
55450,-0.34243580698967,64.5222758295323
55560,-0.341399997472763,64.6601411431932
55670,-0.341814309358597,64.7980130681482
55770,-0.342850118875504,64.6601411431932
55880,-0.34305727481842,64.5682309340859
55990,-0.342021465301514,64.5222758295323
56100,-0.341192841529846,64.6601411431932
56210,-0.342021465301514,64.8899232772555
56320,-0.34305727481842,64.7520579635945
56430,-0.343264430761337,64.430365620425
56540,-0.34305727481842,63.9708079635945
56650,-0.34305727481842,63.7869809340859
56760,-0.342642962932587,63.8329360386396
56870,-0.34243580698967,63.8788911431932
56980,-0.34160715341568,64.1546283818091
57090,-0.342021465301514,64.1546283818091
57190,-0.342021465301514,64.0167630681482
57300,-0.34243580698967,64.3844105158713
57410,-0.342021465301514,64.3844105158713
57520,-0.34243580698967,64.3844105158713
57630,-0.342021465301514,64.3844105158713
57740,-0.342228621244431,64.7980196794421
57850,-0.342228621244431,64.8439813952898
57960,-0.34243580698967,64.8439813952898
58070,-0.341192841529846,65.211628843013
58180,-0.34243580698967,65.1656671271653
58290,-0.34243580698967,64.9358849931031
58400,-0.34160715341568,64.9818400976568
58500,-0.342228621244431,65.0278018135044
58610,-0.34243580698967,64.9358849931031
58720,-0.342850118875504,64.7061028590409
58830,-0.342021465301514,64.5682375453799
58940,-0.342228621244431,64.8439747839958
59050,-0.341814309358597,64.5682375453799
59160,-0.342228621244431,64.6141992612276
59270,-0.34160715341568,64.6141992612276
59380,-0.342850118875504,64.5222890521203
59490,-0.342021465301514,64.6601609770752
59600,-0.342228621244431,64.7520777974765
59710,-0.342228621244431,64.7520777974765
59820,-0.341399997472763,65.0278150360924
59920,-0.342642962932587,64.8439880065838
60030,-0.342642962932587,64.5222956634143
60140,-0.342228621244431,64.6142124838156
60250,-0.34305727481842,64.3844303497533
60360,-0.342850118875504,64.2465584247984
60470,-0.342228621244431,64.1086931111374
60580,-0.343264430761337,63.9708277974765
60690,-0.34160715341568,63.9708277974765
60800,-0.341399997472763,64.0167829020301
60910,-0.342850118875504,63.9248726929229
61020,-0.34160715341568,63.9708277974765
61130,-0.34305727481842,63.8329624838156
61240,-0.34243580698967,63.7870007679679
61340,-0.342850118875504,63.511263529352
61450,-0.34243580698967,63.4653018135044
61560,-0.342021465301514,63.511256918058
61670,-0.34160715341568,63.7410390521203
61780,-0.34243580698967,63.6950773362726
61890,-0.342642962932587,63.6950773362726
62000,-0.34388592839241,63.2355130681482
62110,-0.342021465301514,63.1895579635945
62220,-0.34305727481842,62.9138207249786
62340,-0.342850118875504,62.5921283818091
62440,-0.343264430761337,62.4542630681482
62550,-0.341814309358597,62.4083079635945
62650,-0.342228621244431,62.6380900976568
62760,-0.343264430761337,62.4083079635945
62870,-0.342850118875504,62.1785258295323
62980,-0.342021465301514,62.086615620425
63090,-0.342021465301514,62.1785324408263
63200,-0.342642962932587,61.9947054113177
63310,-0.34243580698967,61.94874369547
63420,-0.342021465301514,62.0406605158713
63530,-0.340985685586929,62.3623528590409
63640,-0.34243580698967,62.3163911431932
63750,-0.34160715341568,62.3163911431932
63860,-0.34305727481842,62.1785258295323
63970,-0.342642962932587,61.94874369547
64070,-0.341814309358597,61.94874369547
64180,-0.34160715341568,62.086609009131
64290,-0.342228621244431,62.0406539045773
64400,-0.342850118875504,61.8568268750688
64510,-0.34243580698967,62.1325575023906
64620,-0.342021465301514,62.2244743227919
64730,-0.34305727481842,62.0406472932833
64840,-0.342850118875504,61.9487370841761
64950,-0.34160715341568,62.1325641136846
65060,-0.342021465301514,62.4083013523005
65170,-0.341814309358597,62.72999369547
65280,-0.342228621244431,62.5002181727018
65380,-0.341814309358597,62.8219105158713
65490,-0.341814309358597,62.8219105158713
65600,-0.34243580698967,62.867865620425
65710,-0.343471586704254,62.6380900976568
65820,-0.34243580698967,62.6380900976568
65930,-0.342642962932587,62.5002181727018
66040,-0.34160715341568,62.5461732772555
66150,-0.342228621244431,62.2244809340859
66260,-0.342642962932587,61.7189615614078
66370,-0.342021465301514,61.7189615614078
66480,-0.343264430761337,61.5351411431932
66590,-0.34243580698967,61.5351411431932
66700,-0.342228621244431,61.3972758295323
66800,-0.342228621244431,61.305365620425
66910,-0.342228621244431,61.167500306764
67020,-0.34243580698967,60.9377181727018
67130,-0.343678742647171,60.7998528590409
67240,-0.343471586704254,60.6619875453799
67350,-0.342642962932587,60.9377247839958
67460,-0.342021465301514,61.0296416043971
67570,-0.34243580698967,61.1215518135044
67680,-0.342850118875504,61.0296416043971
67790,-0.342642962932587,60.8458145748885
67900,-0.342850118875504,60.6160324408263
68010,-0.342642962932587,60.4781605158713
68110,-0.342021465301514,60.524115620425
68220,-0.34160715341568,60.9836732772555
68330,-0.341399997472763,61.3513207249786
68440,-0.342021465301514,61.3972758295323
68550,-0.342021465301514,61.6270579635945
68660,-0.34243580698967,61.6730130681482
68770,-0.341814309358597,61.8568400976568
68880,-0.343471586704254,61.5811028590409
68990,-0.342850118875504,61.5351477544872
69100,-0.342642962932587,61.3513207249786
69210,-0.34388592839241,61.1215385909164
69320,-0.342228621244431,60.8458079635945
69430,-0.342021465301514,60.9377247839958
69530,-0.34243580698967,60.7079426499336
69640,-0.341399997472763,60.7998528590409
69750,-0.342021465301514,60.9836798885494
69860,-0.343678742647171,60.8458145748885
69970,-0.34160715341568,60.9377247839958
70080,-0.34243580698967,60.6619875453799
70190,-0.342642962932587,60.524115620425
70300,-0.34243580698967,60.6619809340859
70410,-0.34243580698967,60.8458013523005
70520,-0.342850118875504,60.8917564568542
70630,-0.341814309358597,61.16749369547
70740,-0.341192841529846,61.4891860386396
70840,-0.34243580698967,61.4891860386396
70950,-0.341399997472763,61.5351411431932
71060,-0.34243580698967,61.4432243227919
71170,-0.341814309358597,61.4891794273456
71280,-0.342228621244431,61.5351411431932
71390,-0.34305727481842,61.305359009131
71500,-0.34160715341568,61.4891860386396
71610,-0.342228621244431,61.4432309340859
71720,-0.341399997472763,61.6270513523005
71830,-0.341814309358597,61.7189615614078
71940,-0.342021465301514,61.8108783818091
72050,-0.341814309358597,61.6730130681482
72160,-0.341399997472763,61.9027952022104
72260,-0.341814309358597,62.0406671271653
72370,-0.342021465301514,61.948756918058
72480,-0.342228621244431,61.948756918058
72590,-0.342642962932587,61.9028018135044
72700,-0.340364187955856,62.4542762907361
72810,-0.342228621244431,62.4083211861825
72920,-0.342228621244431,62.4083211861825
73030,-0.342021465301514,62.3623660816288
73140,-0.342228621244431,62.3623660816288
73250,-0.342021465301514,62.2704558725216
73360,-0.342850118875504,62.2704558725216
73470,-0.342642962932587,62.1325839475666
73570,-0.342228621244431,62.1325839475666
73680,-0.342021465301514,62.1785390521203
73790,-0.34305727481842,61.8108916043971
73900,-0.342642962932587,61.8108916043971
74010,-0.342021465301514,61.948763529352
74120,-0.342021465301514,61.9947186339057
74230,-0.341814309358597,62.2704558725216
74340,-0.34160715341568,62.5461931111374
74450,-0.342642962932587,62.4542762907361
74560,-0.342642962932587,62.5921416043971
74670,-0.340985685586929,62.730006918058
74780,-0.340985685586929,62.8219171271653
74890,-0.341814309358597,63.0516992612276
74990,-0.342228621244431,62.9138339475666
75100,-0.342021465301514,63.1436160816288
75210,-0.342850118875504,63.0517058725216
75320,-0.34160715341568,63.3274431111374
75430,-0.34243580698967,63.3274431111374
75540,-0.341399997472763,63.4653084247984
75650,-0.341399997472763,63.511263529352
75760,-0.342642962932587,63.4653084247984
75870,-0.341814309358597,63.649135454307
75980,-0.342228621244431,64.0167895133241
76090,-0.342642962932587,63.8789175883692
76200,-0.342642962932587,63.9708277974765
76300,-0.342642962932587,64.0167829020301
76410,-0.34243580698967,64.2006033202447
76520,-0.341399997472763,64.292513529352
76630,-0.34160715341568,64.430378843013
76740,-0.341814309358597,64.7520711861825
76850,-0.342850118875504,64.7520711861825
76960,-0.341814309358597,64.7980262907361
77070,-0.34243580698967,64.7061094703349
77180,-0.342228621244431,64.7980262907361
77290,-0.342850118875504,64.7061160816288
77400,-0.34160715341568,64.7980262907361
77510,-0.341399997472763,64.7061160816288
77620,-0.34243580698967,64.7061160816288
77720,-0.341192841529846,64.7980262907361
77830,-0.342642962932587,64.8899364998434
77940,-0.342850118875504,64.8439813952898
78050,-0.342228621244431,64.7520711861825
78160,-0.342021465301514,64.6601609770752
78270,-0.342228621244431,64.6601609770752
78380,-0.342642962932587,64.7061160816288
78490,-0.341814309358597,64.8439880065838
78600,-0.344093084335327,64.3844237384593
78710,-0.342642962932587,64.4763339475666
78820,-0.34160715341568,64.7520711861825
78930,-0.34243580698967,64.5682441566739
79030,-0.342850118875504,64.3844171271653
79140,-0.342642962932587,64.2005900976568
79250,-0.342228621244431,64.2005900976568
79360,-0.342850118875504,63.9708079635945
79470,-0.342228621244431,63.8788977544872
79580,-0.34305727481842,63.7410324408263
79690,-0.342228621244431,64.0167696794421
79800,-0.342228621244431,64.0627313952898
79910,-0.341399997472763,64.3384686339057
80020,-0.342228621244431,64.2006033202447
80130,-0.342228621244431,64.2006033202447
80240,-0.342021465301514,64.3384752451997
80350,-0.341814309358597,64.3844303497533
80450,-0.341399997472763,64.7980329020301
80560,-0.342642962932587,64.7520777974765
80670,-0.341192841529846,64.9818533202447
80780,-0.341399997472763,65.1656737384593
80890,-0.342228621244431,65.1656737384593
81000,-0.342850118875504,65.073763529352
81110,-0.343471586704254,65.1197186339057
81220,-0.341814309358597,65.4873660816288
81330,-0.342021465301514,65.6252380065838
81440,-0.344093084335327,65.1656737384593
81550,-0.343678742647171,64.8899431111374
81660,-0.34243580698967,64.9818533202447
81760,-0.34243580698967,65.0278084247984
81870,-0.342642962932587,65.073763529352
81980,-0.342228621244431,65.1656803497533
82090,-0.34243580698967,65.073763529352
82200,-0.34243580698967,64.8899364998434
82310,-0.342228621244431,64.7061160816288
82420,-0.342850118875504,64.5222890521203
82530,-0.341814309358597,64.5682441566739
82640,-0.341814309358597,64.7061160816288
82750,-0.34243580698967,64.5682441566739
82860,-0.342850118875504,64.7061094703349
82970,-0.341814309358597,64.9358916043971
83080,-0.342228621244431,65.0278084247984
83180,-0.341399997472763,65.5792829020301
83290,-0.342642962932587,65.4873660816288
83400,-0.342021465301514,65.4873660816288
83510,-0.34305727481842,65.3495007679679
83620,-0.343264430761337,64.9358982156911
83730,-0.342021465301514,64.9358982156911
83840,-0.342021465301514,65.3035456634143
83950,-0.342850118875504,65.0278084247984
84060,-0.342228621244431,65.073770140646
84170,-0.342642962932587,65.073770140646
84280,-0.34243580698967,65.073770140646
84390,-0.342850118875504,64.9818599315387
84490,-0.341814309358597,65.211642065601
84600,-0.34160715341568,65.2575971701546
84710,-0.341814309358597,65.1197318564937
84820,-0.342850118875504,65.0278216473864
84930,-0.343678742647171,64.5223088860023
85040,-0.343264430761337,64.3384884677877
85150,-0.34160715341568,64.3844435723413
85260,-0.341814309358597,64.4763537814486
85370,-0.342850118875504,64.5223088860023
85480,-0.342642962932587,64.29252675194
85590,-0.341814309358597,64.3844369610473
85700,-0.342021465301514,64.2465716473864
85810,-0.34243580698967,64.1086997224314
85910,-0.342021465301514,64.1086997224314
86020,-0.342021465301514,64.0627446178778
86130,-0.34243580698967,63.8329624838156
86240,-0.342021465301514,63.7870073792619
86350,-0.34305727481842,63.5572252451997
86460,-0.34243580698967,63.511263529352
86570,-0.34243580698967,63.5572186339057
86680,-0.34160715341568,63.2814813952898
86790,-0.34243580698967,63.2355196794422
86900,-0.34243580698967,63.1895579635945
87010,-0.342642962932587,63.0516860386396
87120,-0.34160715341568,63.1895513523005
87220,-0.340571343898773,63.51124369547
87330,-0.343264430761337,63.4193334863628
87440,-0.342228621244431,63.511250306764
87550,-0.34305727481842,63.3274232772555
87660,-0.342642962932587,63.1895513523005
87770,-0.342021465301514,63.4193334863628
87880,-0.34243580698967,63.4652885909164
87990,-0.34160715341568,63.5571988000237
88100,-0.34388592839241,63.1435896364529
88210,-0.342228621244431,63.0516794273456
88320,-0.343264430761337,62.6840319796224
88430,-0.341814309358597,62.867859009131
88540,-0.34243580698967,62.9138141136846
88640,-0.341814309358597,62.72999369547
88750,-0.342642962932587,62.3623462477469
88860,-0.342021465301514,62.3163911431932
88970,-0.342642962932587,62.2244743227919
89080,-0.34305727481842,61.9946921887297
89190,-0.342228621244431,62.1325641136846
89300,-0.342228621244431,61.9946988000237
89410,-0.341399997472763,62.2244809340859
89520,-0.342228621244431,62.0406605158713
89630,-0.342850118875504,61.7189681727018
89740,-0.342642962932587,61.7189681727018
89850,-0.342228621244431,61.6270579635945
89950,-0.342021465301514,61.6730130681482
90060,-0.34388592839241,61.3972758295323
90170,-0.34305727481842,61.305365620425
90280,-0.342228621244431,61.3972824408263
90390,-0.341399997472763,61.6270645748885
90500,-0.342850118875504,61.305372231719
90610,-0.34305727481842,60.9836798885494
90720,-0.342642962932587,60.7998528590409
90830,-0.342021465301514,60.9836798885494
90940,-0.342642962932587,60.7998528590409
91050,-0.342228621244431,60.8458145748885
91160,-0.342642962932587,60.7538977544872
91270,-0.343264430761337,60.6619875453799
91370,-0.34243580698967,60.4781605158713
91480,-0.342228621244431,60.2943400976568
91590,-0.342021465301514,60.386256918058
91700,-0.342642962932587,60.0645645748885
91810,-0.34305727481842,59.9726543657812
91920,-0.340985685586929,60.386256918058
92030,-0.341814309358597,60.4781671271653
92140,-0.343264430761337,60.2024298885494
92250,-0.341814309358597,60.2943400976568
92360,-0.342228621244431,60.386256918058
92470,-0.342228621244431,60.2943467089507
92580,-0.341814309358597,60.7998660816288
92680,-0.342228621244431,60.8917829020301
92790,-0.342642962932587,60.6620007679679
92900,-0.342021465301514,60.7539175883692
93010,-0.34160715341568,61.0296548269851
93120,-0.34305727481842,60.9377446178778
93230,-0.342021465301514,60.9836997224314
93340,-0.34305727481842,60.9377446178778
93450,-0.343471586704254,60.6620073792619
93560,-0.342021465301514,60.8917895133241
93670,-0.342021465301514,60.9377446178778
93780,-0.342021465301514,60.9836997224314
93890,-0.342021465301514,60.8458344087705
94000,-0.341192841529846,61.0756099315387
94100,-0.341399997472763,61.2594303497533
94210,-0.342228621244431,61.2134752451997
94320,-0.342642962932587,61.0296482156911
94430,-0.34305727481842,60.6620007679679
94540,-0.34243580698967,60.7079558725216
94650,-0.34160715341568,60.6160456634143
94760,-0.341814309358597,60.524135454307
94870,-0.34243580698967,60.4781737384593
94980,-0.34305727481842,60.4322186339057
95090,-0.34160715341568,60.8458211861825
95200,-0.342228621244431,60.7539109770752
95310,-0.341814309358597,60.7998660816288
95410,-0.341814309358597,61.305385454307
95520,-0.341814309358597,61.7189880065838
95630,-0.342642962932587,61.6730329020301
95740,-0.342021465301514,61.7649497224314
95850,-0.34243580698967,61.8109048269851
95960,-0.34243580698967,61.7649431111374
96070,-0.343264430761337,61.5811226929229
96180,-0.341814309358597,61.7189946178778
96290,-0.342021465301514,61.7649497224314
96400,-0.34305727481842,61.7189946178778
96510,-0.34243580698967,61.5811226929229
96620,-0.342228621244431,61.4892124838156
96730,-0.341814309358597,61.6270844087705
96830,-0.341192841529846,61.9947318564937
96940,-0.343264430761337,61.6730395133241
97050,-0.341814309358597,61.7649497224314
97160,-0.341814309358597,61.6730395133241
97270,-0.342228621244431,61.7649563337254
97380,-0.342642962932587,61.6270844087705
97490,-0.342642962932587,61.7189946178778
97600,-0.342021465301514,61.9947318564937
97710,-0.34160715341568,62.086642065601
97820,-0.342021465301514,62.086642065601
97930,-0.34243580698967,62.1785522747083
98040,-0.342021465301514,62.2245073792619
98140,-0.341814309358597,62.4083344087705
98250,-0.34243580698967,62.4083344087705
98360,-0.342021465301514,62.5921614382791
98470,-0.342021465301514,62.5462063337254
98580,-0.342642962932587,62.3164241996632
98690,-0.342642962932587,62.1325971701546
98800,-0.342021465301514,62.3164241996632
98910,-0.342642962932587,62.5461997224314
99020,-0.342642962932587,62.6840650360924
99130,-0.34243580698967,62.5002380065838
99240,-0.341814309358597,62.5002380065838
99350,-0.342850118875504,62.5002380065838
99460,-0.342021465301514,62.6381099315387
99560,-0.34388592839241,62.1785456634143
99670,-0.34243580698967,62.086628843013
99780,-0.34160715341568,62.2704558725216
99890,-0.342642962932587,62.1325839475666
100000,-0.341399997472763,62.2704492612276
100110,-0.341814309358597,62.4083211861825
100220,-0.34160715341568,62.5002313952898
100330,-0.342850118875504,62.5461864998435
100440,-0.342021465301514,62.6381033202447
100550,-0.342228621244431,62.6840650360924
100660,-0.34243580698967,62.5002380065838
100770,-0.342642962932587,62.4542829020301
100870,-0.342021465301514,62.5461997224314
100980,-0.342021465301514,62.6840716473864
101090,-0.34243580698967,62.5002446178778
101200,-0.34243580698967,62.086635454307
101310,-0.342021465301514,62.3623726929229
101420,-0.34243580698967,62.3164109770752
101530,-0.34160715341568,62.6381033202447
101640,-0.34243580698967,62.6840584247984
101750,-0.343264430761337,62.4083211861825
101860,-0.341814309358597,62.5461931111374
101970,-0.341192841529846,62.6381033202447
102080,-0.34305727481842,62.8219303497533
102190,-0.34305727481842,62.6381033202447
102290,-0.342850118875504,62.730013529352
102400,-0.342228621244431,62.6381033202447
102510,-0.34305727481842,62.5002380065838
102620,-0.341192841529846,62.6381033202447
102730,-0.342850118875504,62.5921482156911
102840,-0.34160715341568,62.6840584247984
102950,-0.342850118875504,62.6381033202447
103060,-0.342642962932587,62.730013529352
103170,-0.342021465301514,62.7759686339057
103280,-0.341814309358597,62.867878843013
103390,-0.34160715341568,62.8219237384593
103500,-0.343471586704254,62.5461864998435
103600,-0.342642962932587,62.5921416043971
103710,-0.34160715341568,62.8219237384593
103820,-0.341192841529846,63.0516992612276
103930,-0.342642962932587,62.9138273362726
104040,-0.342850118875504,63.1436094703349
104150,-0.341192841529846,63.5572120226117
104260,-0.342850118875504,63.4193400976568
104370,-0.34388592839241,62.867865620425
104480,-0.343471586704254,62.730000306764
104590,-0.342642962932587,62.8219105158713
104700,-0.340985685586929,63.1895579635945
104810,-0.34243580698967,63.0976411431932
104920,-0.342021465301514,63.2355130681482
105020,-0.342228621244431,63.2355130681482
105130,-0.342021465301514,63.3733849931031
105240,-0.34243580698967,63.5572054113177
105350,-0.342021465301514,63.649122231719
105460,-0.34160715341568,63.7869875453799
105570,-0.342850118875504,63.6031605158713
105680,-0.342642962932587,63.6031605158713
105790,-0.342021465301514,63.8329426499336
105900,-0.34305727481842,63.3733849931031
106010,-0.34243580698967,63.2355130681482
106120,-0.342850118875504,63.3274232772555
106230,-0.34243580698967,63.1895513523005
106330,-0.34243580698967,63.1435896364529
106440,-0.342642962932587,63.0516728160516
106550,-0.342642962932587,62.867845786543
106660,-0.341814309358597,62.9597559956503
106770,-0.342021465301514,63.0976279206052
106880,-0.342228621244431,63.0516728160516
106990,-0.342642962932587,62.8218906819894
107100,-0.343264430761337,62.7759355774357
107210,-0.342228621244431,62.7299804728821
107320,-0.342021465301514,62.9597626069443
107430,-0.342642962932587,63.1435830251589
107540,-0.34243580698967,63.0516662047576
107650,-0.341814309358597,63.0976213093112
107750,-0.34160715341568,63.1895315184185
107860,-0.34160715341568,63.2814417275258
107970,-0.34243580698967,63.00570448891
108080,-0.342850118875504,62.6840121457404
108190,-0.341399997472763,62.867832563955
108300,-0.343264430761337,62.7299672502941
108410,-0.342021465301514,62.9597493843563
108520,-0.342642962932587,62.9137942798027
108630,-0.342850118875504,62.6380570411868
108740,-0.34243580698967,62.5001851162318
108850,-0.342642962932587,62.4542300116782
108960,-0.34305727481842,62.4542300116782
109060,-0.342228621244431,62.3163646980172
109170,-0.342642962932587,62.224447877616
109280,-0.342642962932587,62.0406208481074
109390,-0.34243580698967,61.9027489231524
109500,-0.342021465301514,61.8567938185988
109610,-0.342850118875504,61.8108387140451
109720,-0.34243580698967,61.7189218936439
109830,-0.342642962932587,61.6729667890902
109940,-0.341399997472763,61.9027489231524
110050,-0.34243580698967,62.086569341367
110160,-0.340985685586929,62.2703897595816
110270,-0.341399997472763,62.4082550732426
110380,-0.342850118875504,62.4542101777962
110480,-0.341192841529846,62.7299474164121
110590,-0.341399997472763,62.9137678346267
110700,-0.343678742647171,62.5001652823499
110810,-0.34388592839241,61.9027357005644
110920,-0.342228621244431,62.1325178346267
111030,-0.342021465301514,62.086562730073
111140,-0.342021465301514,62.0406076255194
111250,-0.342642962932587,61.9486908051181
111360,-0.342642962932587,61.9486908051181
111470,-0.341814309358597,62.1325178346267
111580,-0.343471586704254,61.8108254914572
111690,-0.34305727481842,61.4891331482876
111790,-0.342642962932587,61.3512612233327
111900,-0.341814309358597,61.4891331482876
112010,-0.342228621244431,61.443178043734
112120,-0.342021465301514,61.3972229391803
112230,-0.34243580698967,61.3972229391803
112340,-0.34160715341568,61.4891331482876
112450,-0.34243580698967,61.3972163278863
112560,-0.341399997472763,61.6729535665022
112670,-0.342021465301514,61.8108254914572
112780,-0.341814309358597,61.8567805960108
112890,-0.34243580698967,61.9027357005644
113000,-0.342642962932587,61.9027357005644
113110,-0.34305727481842,61.7648703869035
113210,-0.343264430761337,61.443178043734
113320,-0.342021465301514,61.6270050732426
113430,-0.342850118875504,61.443178043734
113540,-0.342021465301514,61.8567872073048
113650,-0.342228621244431,61.9027489231524
113760,-0.34160715341568,61.9027489231524
113870,-0.34305727481842,61.8108387140451
113980,-0.34160715341568,61.7648836094915
114090,-0.342642962932587,61.5810565799829
114200,-0.34305727481842,61.2593642368134
114310,-0.341399997472763,61.5810565799829
114420,-0.343678742647171,61.2134091322597
114520,-0.342850118875504,61.0755372073048
114630,-0.342021465301514,61.1674540277061
114740,-0.34243580698967,61.2134091322597
114850,-0.342850118875504,61.0295821027511
114960,-0.34243580698967,60.9376652823499
115070,-0.343471586704254,60.7078897595816
115180,-0.34243580698967,60.7078897595816
115290,-0.341814309358597,60.7538448641353
115400,-0.342228621244431,60.7998065799829
115510,-0.34243580698967,60.6159795504743
115620,-0.342021465301514,60.7078963708756
115730,-0.342021465301514,60.9836336094915
115840,-0.341814309358597,60.9836336094915
115940,-0.342850118875504,60.6159861617683
116050,-0.342021465301514,60.8457682958306
116160,-0.341814309358597,61.1215055344464
116270,-0.343678742647171,60.9376851162318
116380,-0.34243580698967,60.8917234003842
116490,-0.341814309358597,61.1674606390001
116600,-0.341814309358597,61.0295953253391
116710,-0.342021465301514,61.2134223548477
116820,-0.342021465301514,61.1215121457404
116930,-0.342642962932587,61.1674672502941
117040,-0.342850118875504,61.1215121457404
117150,-0.342850118875504,60.9376851162318
117250,-0.34305727481842,60.661947877616
117360,-0.341814309358597,60.6159927730623
117470,-0.342228621244431,60.8917300116782
117580,-0.341399997472763,61.1674672502941
117690,-0.342021465301514,61.0755570411868
117800,-0.34243580698967,60.7998198025709
117910,-0.342642962932587,60.7998198025709
118020,-0.342228621244431,60.9376917275258
118130,-0.342642962932587,60.6159993843563
118240,-0.34160715341568,60.8917366229722
118350,-0.34160715341568,61.3972559956503
118460,-0.342021465301514,61.7189483388198
118570,-0.342850118875504,61.6729932342662
118670,-0.343678742647171,61.0755702637748
118780,-0.342228621244431,61.1215319796224
118890,-0.342642962932587,60.9836600546675
119000,-0.343264430761337,60.7538779206052
119110,-0.342021465301514,60.7538779206052
119220,-0.342228621244431,60.7998396364529
119330,-0.34243580698967,60.7079228160516
119440,-0.341192841529846,60.7998330251589
119550,-0.34160715341568,61.0755702637748
119660,-0.342021465301514,61.2134421887297
119770,-0.342642962932587,61.0755702637748
119880,-0.34243580698967,61.2134355774357
119980,-0.341399997472763,61.4432177114979
120090,-0.344300240278244,61.1215253683284
120200,-0.342228621244431,61.1674870841761
120310,-0.342850118875504,61.0755768750688
120420,-0.341814309358597,61.2594039045773
120530,-0.34160715341568,61.4891860386396
120640,-0.34160715341568,61.5351411431932
120750,-0.34243580698967,61.4432243227919
120860,-0.34243580698967,61.3972626069443
120970,-0.34243580698967,61.4432177114979
121080,-0.342228621244431,61.6729998455602
121190,-0.342642962932587,61.5810830251589
121300,-0.342021465301514,61.5810830251589
121400,-0.342850118875504,61.5351279206052
121510,-0.342228621244431,61.5810896364529
121620,-0.343264430761337,61.2593972932833
121730,-0.341814309358597,61.2134421887297
121840,-0.342228621244431,61.0755768750688
121950,-0.34305727481842,60.9377115614078
122060,-0.342021465301514,61.1215385909164
122170,-0.343678742647171,60.6160258295323
122280,-0.341399997472763,61.0296283818091
122390,-0.343471586704254,60.7079360386396
122500,-0.34160715341568,60.9377181727018
122610,-0.34243580698967,61.0296283818091
122710,-0.342021465301514,61.1215452022104
122820,-0.342021465301514,61.2594171271653
122930,-0.342850118875504,61.305372231719
123040,-0.342021465301514,61.3513273362726
123150,-0.341399997472763,61.6270645748885
123260,-0.342228621244431,61.7189813952898
123370,-0.341399997472763,61.948763529352
123480,-0.342642962932587,61.8108916043971
123590,-0.34243580698967,61.9028018135044
123700,-0.342021465301514,61.9947186339057
123810,-0.342021465301514,62.1325905588606
123920,-0.342021465301514,61.9947252451997
124030,-0.341814309358597,62.1325971701546
124130,-0.342642962932587,61.7649497224314
124240,-0.342021465301514,61.6270844087705
124350,-0.34243580698967,61.7189946178778
124460,-0.342850118875504,61.3513471701546
124570,-0.341814309358597,61.2594369610473
124680,-0.342850118875504,61.4432573792619
124790,-0.34160715341568,61.94877675194
124900,-0.342228621244431,61.94877675194
125010,-0.341814309358597,61.9947318564937
125120,-0.34160715341568,62.086642065601
125230,-0.342021465301514,62.2245139905559
125340,-0.342642962932587,62.2245139905559
125440,-0.343471586704254,61.8568665428327
125550,-0.340985685586929,62.4083344087705
125660,-0.340571343898773,62.9598088860023
125770,-0.342642962932587,62.9598088860023
125880,-0.342228621244431,62.867898676895
125990,-0.342228621244431,62.867898676895
126100,-0.34160715341568,62.9598088860023
126210,-0.342228621244431,63.0057706018499
126320,-0.342642962932587,62.7759884677877
126430,-0.34160715341568,62.9598154972962
126540,-0.342228621244431,62.7759950790817
126650,-0.342850118875504,62.5921680495731
126760,-0.34305727481842,62.3164308109572
126860,-0.342228621244431,62.3623925268048
126970,-0.343264430761337,62.2245272131439
127080,-0.342850118875504,62.2704823176975
127190,-0.342642962932587,62.4083476313585
127300,-0.34243580698967,62.3164308109572
127410,-0.342021465301514,62.5002578404658
127520,-0.34160715341568,62.5921680495731
127630,-0.34243580698967,62.5462063337254
127740,-0.342021465301514,62.4542961246181
127850,-0.34305727481842,62.4542961246181
127960,-0.34077849984169,62.6381231541267
128070,-0.342642962932587,62.6381231541267
128170,-0.341814309358597,62.9138603927426
128280,-0.34160715341568,62.867905288189
128390,-0.34243580698967,63.1436359155108
128500,-0.341192841529846,63.511283363234
128610,-0.341814309358597,63.5572384677877
128720,-0.34305727481842,63.4193731541267
128830,-0.342228621244431,63.5572450790817
128940,-0.342021465301514,63.6491618994829
129050,-0.34243580698967,63.8789374222512
129160,-0.342021465301514,63.9708542426525
129270,-0.342228621244431,63.8789440335452
129380,-0.342850118875504,63.7410721085902
129490,-0.34243580698967,63.7410721085902
129590,-0.34243580698967,63.649155288189
129700,-0.341814309358597,63.6951103927426
129810,-0.342850118875504,63.4653282586804
129920,-0.343264430761337,63.3734180495731
130030,-0.340985685586929,63.6031935723413
130140,-0.34160715341568,63.649148676895
130250,-0.342228621244431,63.9708410200645
130360,-0.343678742647171,63.6951103927426
130470,-0.342228621244431,63.6032001836353
130580,-0.342021465301514,63.5572450790817
130690,-0.341192841529846,63.7410654972962
130800,-0.34305727481842,63.511283363234
130900,-0.343471586704254,63.3274629450194
131010,-0.34160715341568,63.6032001836353
131120,-0.344093084335327,63.3274629450194
131230,-0.343264430761337,63.2815078404658
131340,-0.341814309358597,63.2815078404658
131450,-0.342228621244431,63.2815078404658
131560,-0.342228621244431,63.0976874222512
131670,-0.342850118875504,62.9138603927426
131780,-0.34160715341568,63.0976874222512
131890,-0.341814309358597,63.2815144517598
132000,-0.343264430761337,63.0517323176975
132110,-0.341814309358597,63.2355593472061
132220,-0.34160715341568,63.2355593472061
132320,-0.34305727481842,62.9138670040366
132430,-0.341814309358597,62.9598221085902
132540,-0.342850118875504,62.9598221085902
132650,-0.34160715341568,63.4193797654207
132760,-0.34305727481842,63.2355527359121
132870,-0.342228621244431,63.3274695563134
132980,-0.342642962932587,63.4653348699744
133090,-0.342850118875504,63.2815078404658
133200,-0.34243580698967,63.2355461246181
133310,-0.34305727481842,63.0976808109572
133420,-0.341192841529846,63.0976808109572
133530,-0.341399997472763,63.1436359155108
133630,-0.34305727481842,62.9138537814486
133740,-0.342228621244431,63.0057706018499
133850,-0.341192841529846,63.2815078404658
133960,-0.34305727481842,62.9138603927426
134070,-0.342228621244431,63.3734246608671
134180,-0.342642962932587,63.2815078404658
134290,-0.341814309358597,63.511289974528
134400,-0.342228621244431,63.4193797654207
134510,-0.342228621244431,63.2815144517598
134620,-0.342228621244431,63.1436491380988
134730,-0.342642962932587,63.0976940335452
134840,-0.342021465301514,63.1896108539465
134950,-0.342642962932587,63.1436557493928
135050,-0.342642962932587,63.0517389289915
135160,-0.342021465301514,63.1896108539465
135270,-0.343264430761337,62.9138736153306
135380,-0.342642962932587,62.9598287198842
135490,-0.34305727481842,62.7760016903757
135600,-0.343264430761337,62.7760016903757
135710,-0.341814309358597,62.7760016903757
135820,-0.34243580698967,62.730039974528
135930,-0.341192841529846,63.1436425268048
136040,-0.34160715341568,63.2355527359121
136150,-0.34243580698967,63.511283363234
136260,-0.341399997472763,63.511283363234
136360,-0.34160715341568,63.9248859155108
136470,-0.34305727481842,63.6031935723413
136580,-0.342021465301514,63.6951103927426
136690,-0.341814309358597,63.7410654972962
136800,-0.341399997472763,63.8789308109572
136910,-0.343678742647171,63.6951103927426
137020,-0.343264430761337,63.4193731541267
137130,-0.342850118875504,63.0976808109572
137240,-0.34243580698967,63.0517190951095
137350,-0.34160715341568,63.0057639905559
137460,-0.341192841529846,63.3274563337254
137570,-0.34243580698967,63.3274563337254
137680,-0.34305727481842,63.0976741996632
137780,-0.342228621244431,63.0517190951095
137890,-0.34160715341568,63.1436293042168
138000,-0.342642962932587,62.9598022747083
138110,-0.342850118875504,62.9138471701546
138220,-0.341814309358597,62.9598022747083
138330,-0.34160715341568,63.1436293042168
138440,-0.34243580698967,63.2355395133241
138550,-0.342021465301514,63.1895844087705
138660,-0.342228621244431,63.3274563337254
138770,-0.343264430761337,62.9598088860023
138880,-0.34243580698967,62.9138471701546
138990,-0.342642962932587,62.730020140646
139090,-0.341399997472763,62.7759752451997
139200,-0.341814309358597,62.8219303497533
139310,-0.342228621244431,62.9138471701546
139420,-0.341814309358597,63.2814946178778
139530,-0.342642962932587,62.9138471701546
139640,-0.341814309358597,62.6381099315387
139750,-0.34160715341568,62.867892065601
139860,-0.342228621244431,62.867892065601
139970,-0.34243580698967,62.8219303497533
140080,-0.342021465301514,62.730020140646
140190,-0.342642962932587,62.6381033202447
140300,-0.34243580698967,62.6840584247984
140410,-0.34160715341568,62.6840584247984
140510,-0.342228621244431,62.6840584247984
140620,-0.34160715341568,62.9597956634143
140730,-0.342642962932587,63.0517058725216
140840,-0.342021465301514,63.0976609770752
140950,-0.344300240278244,62.867878843013
141060,-0.34077849984169,63.3274431111374
141170,-0.342642962932587,63.3274431111374
141280,-0.341814309358597,63.4653150360924
141390,-0.341399997472763,63.6031803497533
141500,-0.342021465301514,63.511270140646
141610,-0.34243580698967,63.511270140646
141720,-0.342850118875504,63.3274431111374
141830,-0.34243580698967,63.4653084247984
141930,-0.343264430761337,62.9138339475666
142040,-0.34160715341568,63.1436160816288
142150,-0.342642962932587,62.9597890521203
142260,-0.34305727481842,62.6380967089507
142370,-0.342642962932587,62.5921416043971
142480,-0.343678742647171,62.0406737384593
142590,-0.341399997472763,62.1325839475666
142700,-0.343678742647171,61.9947186339057
142810,-0.342850118875504,61.8568467089507
142920,-0.34305727481842,61.6270645748885
143030,-0.34160715341568,61.8108916043971
143140,-0.342228621244431,61.7649364998435
143240,-0.342228621244431,61.7649364998435
143350,-0.342228621244431,61.9028084247984
143460,-0.34160715341568,62.086635454307
143570,-0.34305727481842,61.948770140646
143680,-0.341814309358597,61.948770140646
143790,-0.342228621244431,62.086642065601
143900,-0.342228621244431,62.3164241996632
144010,-0.340571343898773,62.4083410200645
144120,-0.342642962932587,62.1785588860023
144230,-0.341399997472763,62.3623793042168
144340,-0.34160715341568,62.8219369610473
144450,-0.342850118875504,62.6840650360924
144560,-0.34305727481842,62.4542829020301
144660,-0.342228621244431,62.2245073792619
144770,-0.341399997472763,62.5921548269851
144880,-0.343471586704254,62.5921548269851
144990,-0.34243580698967,62.4083277974765
145100,-0.34243580698967,62.7759752451997
145210,-0.342642962932587,62.9138405588606
145320,-0.34305727481842,62.6381033202447
145430,-0.342021465301514,62.6840584247984
145540,-0.342642962932587,62.5921416043971
145650,-0.342642962932587,62.6380967089507
145760,-0.343678742647171,62.1785390521203
145870,-0.34388592839241,61.7189747839958
145970,-0.34077849984169,62.2704492612276
146080,-0.34305727481842,61.9947120226117
146190,-0.342228621244431,61.8568467089507
146300,-0.341814309358597,62.1325839475666
146410,-0.342021465301514,62.086628843013
146520,-0.342850118875504,62.086628843013
146630,-0.342228621244431,61.948763529352
146740,-0.341814309358597,62.2245007679679
146850,-0.342642962932587,62.1325839475666
146960,-0.34305727481842,62.0406737384593
147070,-0.342021465301514,62.2245007679679
147180,-0.342021465301514,62.3164175883692
147290,-0.342642962932587,62.4083277974765
147390,-0.341399997472763,62.3623726929229
147500,-0.342021465301514,62.2245073792619
147610,-0.342850118875504,62.2704624838156
147720,-0.342850118875504,62.1325905588606
147830,-0.341192841529846,62.1325905588606
147940,-0.34160715341568,62.4542829020301
148050,-0.342021465301514,62.5002380065838
148160,-0.342642962932587,62.5002380065838
148270,-0.341814309358597,62.5002380065838
148380,-0.341814309358597,62.5921482156911
148490,-0.34243580698967,62.5461864998435
148600,-0.342642962932587,62.4542696794422
148700,-0.341814309358597,62.6380967089507
148810,-0.342021465301514,62.6380967089507
148920,-0.342021465301514,62.7759686339057
149030,-0.341814309358597,62.9597956634143
149140,-0.341399997472763,63.0976609770752
149250,-0.34243580698967,63.2814813952898
149360,-0.342021465301514,63.4193533202447
149470,-0.34305727481842,63.4193533202447
149580,-0.342642962932587,63.5572186339057
149690,-0.342850118875504,63.3274364998435
149800,-0.342021465301514,63.4193533202447
149910,-0.34243580698967,63.1436160816288
150020,-0.342228621244431,63.0057507679679
150120,-0.342642962932587,62.9597956634143
150230,-0.340985685586929,63.0517058725216
150340,-0.341814309358597,63.0057507679679
150450,-0.342228621244431,63.1895777974765
150560,-0.342228621244431,63.1436226929229
150670,-0.341399997472763,63.2355329020301
150780,-0.342228621244431,63.0517124838156
150890,-0.34243580698967,63.3274431111374
151000,-0.343264430761337,63.3274431111374
151110,-0.34160715341568,63.6031803497533
151220,-0.343264430761337,63.4193599315387
151330,-0.341814309358597,63.3734048269851
151430,-0.341814309358597,63.2355395133241
151540,-0.342228621244431,63.2815012291718
151650,-0.343264430761337,63.2355461246181
151760,-0.34243580698967,63.1895844087705
151870,-0.341814309358597,63.1436293042168
151980,-0.341814309358597,63.3274563337254
152090,-0.342642962932587,63.3734114382791
152200,-0.341814309358597,63.3734114382791
152310,-0.341814309358597,63.3274563337254
152420,-0.342850118875504,63.2355461246181
152530,-0.341192841529846,63.4193665428327
152640,-0.34243580698967,63.3734048269851
152750,-0.342228621244431,63.6031869610473
152850,-0.34243580698967,63.6031869610473
152960,-0.341814309358597,63.7870139905559
153070,-0.342228621244431,63.6031935723413
153180,-0.342021465301514,63.5572384677877
153290,-0.342228621244431,63.5572384677877
153400,-0.34160715341568,63.6031935723413
153510,-0.34243580698967,63.649148676895
153620,-0.342850118875504,63.4193665428327
153730,-0.342228621244431,63.2815012291718
153840,-0.341814309358597,63.3734114382791
153950,-0.342850118875504,63.2815012291718
154060,-0.341814309358597,63.3274563337254
154160,-0.342021465301514,63.4653282586804
154270,-0.342642962932587,63.4193731541267
154380,-0.34160715341568,63.4193731541267
154490,-0.342642962932587,63.3274563337254
154600,-0.34243580698967,63.1436293042168
154710,-0.342228621244431,63.2355461246181
154820,-0.342642962932587,63.0976741996632
154930,-0.341814309358597,63.649148676895
155040,-0.342021465301514,63.3734114382791
155150,-0.342850118875504,63.3274563337254
155260,-0.341814309358597,63.3274563337254
155370,-0.343264430761337,62.9138537814486
155480,-0.34305727481842,62.6840716473864
155580,-0.34305727481842,62.5462063337254
155690,-0.342228621244431,62.6840782586804
155800,-0.34160715341568,62.867905288189
155910,-0.341192841529846,63.3274629450194
156020,-0.342228621244431,63.1895976313585
156130,-0.34243580698967,63.2355527359121
156240,-0.34243580698967,63.3734180495731
156350,-0.342228621244431,63.4653348699744
156460,-0.342021465301514,63.8329823176975
156570,-0.342021465301514,63.6951170040366
156680,-0.342228621244431,64.0168093472061
156790,-0.342228621244431,64.1546812721611
156890,-0.341814309358597,64.4304185107769
157000,-0.34243580698967,64.2465914812684
157110,-0.342850118875504,64.1087195563134
157220,-0.342228621244431,64.1087195563134
157330,-0.342642962932587,64.0168027359121
157440,-0.34243580698967,63.8329757064035
157550,-0.34243580698967,63.9708410200645
157660,-0.341192841529846,64.1087063337254
157770,-0.34243580698967,64.0627446178778
157880,-0.342642962932587,63.9708277974765
157990,-0.342642962932587,63.511263529352
158100,-0.342850118875504,63.4653084247984
158210,-0.341192841529846,63.511263529352
158310,-0.34243580698967,63.3274364998435
158420,-0.342021465301514,63.511263529352
158530,-0.34160715341568,63.8329558725216
158640,-0.341814309358597,63.9248660816288
158750,-0.342021465301514,63.7870007679679
158860,-0.342021465301514,64.1086931111374
158970,-0.342228621244431,64.1546548269851
159080,-0.340985685586929,64.4763471701546
159190,-0.342850118875504,64.430392065601
159300,-0.343471586704254,64.3384818564937
159410,-0.343264430761337,64.0627446178778
159520,-0.34243580698967,64.1086997224314
159620,-0.342642962932587,64.1086997224314
159730,-0.342021465301514,64.4763471701546
159840,-0.34243580698967,64.7980395133241
159950,-0.342228621244431,64.4763471701546
160060,-0.342228621244431,64.6601741996632
160170,-0.34388592839241,64.292520140646
160280,-0.34243580698967,64.1546482156911
160390,-0.342228621244431,64.1086931111374
160500,-0.34160715341568,64.3844303497533
160610,-0.341814309358597,64.4763405588606
160720,-0.342021465301514,64.430385454307
160830,-0.342642962932587,64.430385454307
160940,-0.341192841529846,64.8439880065838
161040,-0.34243580698967,64.7520711861825
161150,-0.341399997472763,64.8899364998434
161260,-0.342021465301514,65.0278084247984
161370,-0.342850118875504,64.7061160816288
161480,-0.34305727481842,64.4763339475666
161590,-0.343471586704254,64.3384686339057
161700,-0.34243580698967,64.430378843013
161810,-0.343471586704254,63.9248660816288
161920,-0.342228621244431,63.7870007679679
162030,-0.34305727481842,63.5572186339057
162140,-0.340571343898773,64.0167829020301
162250,-0.34243580698967,63.8789109770752
162350,-0.342850118875504,63.649128843013
162460,-0.342642962932587,63.6031737384593
162570,-0.341399997472763,63.8789109770752
162680,-0.341192841529846,64.0167762907361
162790,-0.34160715341568,64.1086864998434
162900,-0.342228621244431,64.0627313952898
163010,-0.34243580698967,63.9248594703349
163120,-0.342228621244431,63.7410390521203
163230,-0.342642962932587,63.6950839475666
163340,-0.343264430761337,63.4193467089507
163450,-0.34243580698967,63.5572120226117
163560,-0.342228621244431,63.649128843013
163670,-0.343264430761337,63.5572186339057
163770,-0.343264430761337,63.2814813952898
163880,-0.343471586704254,63.0517058725216
163990,-0.342228621244431,63.0517058725216
164100,-0.343264430761337,62.9138405588606
164210,-0.34160715341568,62.7759752451997
164320,-0.34305727481842,62.5002380065838
164430,-0.342642962932587,62.4083211861825
164540,-0.341192841529846,62.6380967089507
164650,-0.342228621244431,62.4542762907361
164760,-0.342642962932587,62.3623594703349
164870,-0.342850118875504,62.2704492612276
164980,-0.342228621244431,62.5002313952898
165080,-0.342642962932587,62.2704492612276
165190,-0.342642962932587,62.4083145748885
165300,-0.342021465301514,62.3623594703349
165410,-0.341399997472763,62.4542696794422
165520,-0.342228621244431,62.4542696794422
165630,-0.341192841529846,62.9138273362726
165740,-0.341192841529846,63.1895645748885
165850,-0.341192841529846,63.3274298885494
165960,-0.342228621244431,63.2355196794422
166070,-0.34243580698967,63.2814747839958
166180,-0.342021465301514,63.2355196794422
166290,-0.341814309358597,63.2355196794422
166400,-0.34243580698967,63.3274298885494
166500,-0.34243580698967,63.0516926499336
166610,-0.342021465301514,63.1436094703349
166720,-0.342021465301514,63.1895645748885
166830,-0.34243580698967,63.1895645748885
166940,-0.342228621244431,63.0976543657812
167050,-0.342021465301514,63.1436094703349
167160,-0.341399997472763,63.2814747839958
167270,-0.342642962932587,63.1895579635945
167380,-0.34243580698967,63.0057309340859
167490,-0.342228621244431,63.0516926499336
167600,-0.34243580698967,63.1436028590409
167710,-0.342228621244431,63.1436028590409
167810,-0.342228621244431,63.0516926499336
167920,-0.34243580698967,63.1436028590409
168030,-0.342021465301514,63.0976477544872
168140,-0.342642962932587,62.9597758295323
168250,-0.342850118875504,62.9138207249786
168360,-0.34388592839241,62.4083013523005
168470,-0.341814309358597,62.5921283818091
168580,-0.341399997472763,62.8219105158713
168690,-0.34243580698967,62.7759488000237
168800,-0.342850118875504,62.72999369547
168910,-0.342228621244431,62.6380834863628
169020,-0.342021465301514,62.6380834863628
169130,-0.341814309358597,62.867865620425
169230,-0.343471586704254,62.5002181727018
169340,-0.342021465301514,62.7759554113177
169450,-0.342228621244431,62.9597824408263
169560,-0.34243580698967,63.0976477544872
169670,-0.342228621244431,63.0976477544872
169780,-0.34160715341568,63.0976477544872
169890,-0.342850118875504,62.730000306764
170000,-0.341814309358597,62.8219105158713
170110,-0.341399997472763,63.0516926499336
170220,-0.342642962932587,63.0057375453799
170330,-0.342228621244431,63.0057375453799
170440,-0.342228621244431,62.9597824408263
170540,-0.343471586704254,62.6380900976568
170650,-0.342642962932587,62.5461732772555
170760,-0.342021465301514,62.5921283818091
170870,-0.342642962932587,62.4083013523005
170980,-0.34243580698967,62.4083013523005
171090,-0.342642962932587,62.4542564568542
171200,-0.342228621244431,62.4542564568542
171310,-0.341814309358597,62.6380834863628
171420,-0.342228621244431,62.6840452022104
171530,-0.341192841529846,62.9597824408263
171640,-0.341814309358597,62.8219171271653
171750,-0.342228621244431,62.867878843013
171860,-0.34160715341568,63.0976609770752
171960,-0.341814309358597,63.2814880065838
172070,-0.34243580698967,63.3733982156911
172180,-0.342228621244431,63.1436226929229
172290,-0.341192841529846,63.4193599315387
172400,-0.34160715341568,63.511270140646
172510,-0.34243580698967,63.3274431111374
172620,-0.342228621244431,63.2355329020301
172730,-0.341814309358597,63.2814880065838
172840,-0.34243580698967,63.1895711861825
172950,-0.341814309358597,63.2814813952898
173060,-0.34160715341568,63.1436160816288
173170,-0.34305727481842,63.0976609770752
173270,-0.342850118875504,63.2355262907361
173380,-0.341814309358597,63.5572186339057
173490,-0.341399997472763,63.7870007679679
173600,-0.34160715341568,64.0167829020301
173710,-0.342642962932587,63.8789109770752
173820,-0.342850118875504,63.7870007679679
173930,-0.34243580698967,63.7410390521203
174040,-0.34160715341568,63.8789043657812
174150,-0.343264430761337,64.0167762907361
174260,-0.343264430761337,63.8329558725216
174370,-0.342021465301514,63.8789109770752
174480,-0.342850118875504,63.6031737384593
174590,-0.34243580698967,63.4653018135044
174690,-0.343471586704254,63.1436094703349
174800,-0.34305727481842,63.0516992612276
174910,-0.34243580698967,62.7759620226117
175020,-0.342021465301514,62.867878843013
175130,-0.34243580698967,62.6380967089507
175240,-0.342850118875504,62.4542696794422
175350,-0.342228621244431,62.5921416043971
175460,-0.341814309358597,62.867878843013
175570,-0.34305727481842,62.9597890521203
175680,-0.34160715341568,63.1436160816288
175790,-0.342228621244431,63.4193533202447
175900,-0.342642962932587,63.3274364998435
176000,-0.34305727481842,63.3274364998435
176110,-0.341399997472763,63.1436094703349
176220,-0.342228621244431,63.1895711861825
176330,-0.34160715341568,63.4653084247984
176440,-0.341814309358597,63.649135454307
176550,-0.342850118875504,63.3274431111374
176660,-0.343471586704254,62.8219303497533
176770,-0.343264430761337,62.4542829020301
176880,-0.343471586704254,62.1785456634143
176990,-0.342642962932587,62.1325905588606
177100,-0.340985685586929,62.4083211861825
177210,-0.341814309358597,62.5921482156911
177320,-0.342021465301514,62.867885454307
177420,-0.341814309358597,63.0057573792619
177530,-0.341399997472763,63.1895777974765
177640,-0.342228621244431,63.4193599315387
177750,-0.34160715341568,63.7870073792619
177860,-0.341814309358597,64.1546548269851
177970,-0.343264430761337,63.9248726929229
178080,-0.341814309358597,64.2465650360924
178190,-0.341399997472763,64.292520140646
178300,-0.342642962932587,64.3844303497533
178410,-0.342228621244431,64.4763471701546
178520,-0.341399997472763,64.430392065601
178630,-0.343678742647171,64.1086997224314
178730,-0.34305727481842,64.0167895133241
178840,-0.34243580698967,64.1086997224314
178950,-0.342021465301514,64.1546548269851
179060,-0.34243580698967,64.2006099315387
179170,-0.342021465301514,64.3384818564937
179280,-0.342642962932587,64.2006099315387
179390,-0.34160715341568,64.1546548269851
179500,-0.342642962932587,64.0627380065838
179610,-0.342642962932587,63.7410456634143
179720,-0.341814309358597,63.6031803497533
179830,-0.34160715341568,63.511270140646
179940,-0.342021465301514,63.5572252451997
180050,-0.342021465301514,63.649142065601
180150,-0.341814309358597,63.6950971701546
180260,-0.343264430761337,63.3734048269851
180370,-0.341814309358597,63.51127675194
180480,-0.34305727481842,63.3734114382791
180590,-0.342850118875504,63.1895844087705
180700,-0.34305727481842,62.9598022747083
180810,-0.341399997472763,63.1895844087705
180920,-0.34305727481842,63.0057573792619
181030,-0.342850118875504,62.8219303497533
181140,-0.34305727481842,62.4542829020301
181250,-0.34305727481842,62.3623726929229
181360,-0.342642962932587,62.3164175883692
181460,-0.34243580698967,62.2704558725216
181570,-0.342642962932587,62.2245007679679
181680,-0.34243580698967,62.1785390521203
181790,-0.34305727481842,61.9947120226117
181900,-0.34305727481842,61.8568467089507
182010,-0.34243580698967,61.7649298885494
182120,-0.34160715341568,61.9947120226117
182230,-0.342021465301514,62.1785390521203
182340,-0.342228621244431,62.5461931111374
182450,-0.34160715341568,62.5921482156911
182560,-0.341814309358597,62.5002380065838
182670,-0.34388592839241,62.1785456634143
182780,-0.342228621244431,62.3164175883692
182880,-0.342642962932587,62.2245007679679
182990,-0.34243580698967,62.1325839475666
183100,-0.342642962932587,61.948756918058
183210,-0.34305727481842,62.0406671271653
183320,-0.341814309358597,62.086622231719
183430,-0.34243580698967,62.0406605158713
183540,-0.342228621244431,62.086622231719
183650,-0.342228621244431,62.086622231719
183760,-0.342228621244431,61.948756918058
183870,-0.34160715341568,62.2244941566739
183980,-0.341814309358597,62.2244941566739
184090,-0.343264430761337,61.8108916043971
184190,-0.342850118875504,61.7649364998435
184300,-0.343264430761337,61.5351543657812
184410,-0.34160715341568,61.6730196794422
184520,-0.342642962932587,61.8568400976568
184630,-0.342642962932587,61.8568400976568
184740,-0.341814309358597,61.9027952022104
184850,-0.342021465301514,62.0406671271653
184960,-0.34243580698967,62.0406671271653
185070,-0.341399997472763,62.3164043657812
185180,-0.34243580698967,62.2704426499336
185290,-0.342642962932587,62.086615620425
185400,-0.34305727481842,61.9027885909164
185510,-0.342642962932587,61.5810962477469
185610,-0.34243580698967,61.4432243227919
185720,-0.34305727481842,61.2593972932833
185830,-0.343471586704254,60.8457947410065
185940,-0.343678742647171,60.4321921887297
186050,-0.342642962932587,60.3862370841761
186160,-0.34160715341568,60.524102397837
186270,-0.34077849984169,60.6160192182383
186380,-0.34243580698967,60.4321921887297
186490,-0.34243580698967,60.4321921887297
186600,-0.341814309358597,60.524102397837
186710,-0.342021465301514,60.4781472932833
186820,-0.34243580698967,60.4781472932833
186920,-0.342021465301514,60.4321921887297
187030,-0.342228621244431,60.2943268750688
187140,-0.342642962932587,60.3862370841761
187250,-0.341399997472763,60.7079294273456
187360,-0.34243580698967,60.5700575023906
187470,-0.34305727481842,60.2024100546675
187580,-0.342021465301514,60.1104998455602
187690,-0.342228621244431,60.2024166659615
187800,-0.343264430761337,60.1105064568542
187910,-0.341192841529846,60.38624369547
188020,-0.341814309358597,60.3402885909164
188130,-0.34243580698967,60.524109009131
188240,-0.342850118875504,60.6160192182383
188340,-0.34243580698967,60.524102397837
188450,-0.343264430761337,60.4321921887297
188560,-0.34243580698967,60.4321921887297
188670,-0.343264430761337,60.4781472932833
188780,-0.341399997472763,60.8457947410065
188890,-0.343264430761337,60.6619743227919
189000,-0.341814309358597,60.7079294273456
189110,-0.342021465301514,60.7998462477469
189220,-0.34243580698967,60.8917564568542
189330,-0.343471586704254,60.6160192182383
189440,-0.341814309358597,60.6160192182383
189550,-0.34305727481842,60.6160192182383
189650,-0.342228621244431,60.4781539045773
189760,-0.341814309358597,60.5700641136846
189870,-0.342642962932587,60.5700641136846
189980,-0.341814309358597,60.8458013523005
190090,-0.342021465301514,60.7079360386396
190200,-0.342021465301514,60.7538911431932
190310,-0.342021465301514,60.6619809340859
190420,-0.34305727481842,60.38624369547
190530,-0.342642962932587,60.4321988000237
190640,-0.341814309358597,60.7998462477469
190750,-0.342642962932587,60.9377115614078
190860,-0.341192841529846,61.4432243227919
190970,-0.342642962932587,61.4432243227919
191070,-0.342642962932587,61.0755768750688
191180,-0.341399997472763,61.1674870841761
191290,-0.343264430761337,60.8917498455602
191400,-0.34243580698967,60.7538779206052
191510,-0.34243580698967,60.524095786543
191620,-0.34243580698967,60.4781340706954
191730,-0.343678742647171,60.0185764138649
191840,-0.34243580698967,59.88070448891
191950,-0.341814309358597,60.2023968320795
192060,-0.341814309358597,60.2023968320795
192170,-0.34305727481842,59.8347493843563
192280,-0.342642962932587,59.8347493843563
192380,-0.341399997472763,60.0185698025709
192490,-0.34243580698967,59.7887876685087
192600,-0.342228621244431,60.1104800116782
192710,-0.341814309358597,60.3862172502941
192820,-0.34243580698967,60.3862172502941
192930,-0.341399997472763,60.524082563955
193040,-0.342228621244431,60.5700442798027
193150,-0.342021465301514,60.5700442798027
193260,-0.342021465301514,60.7079162047576
193370,-0.34160715341568,60.7079162047576
193480,-0.342850118875504,60.6619611002039
193590,-0.342642962932587,60.6619611002039
193700,-0.34305727481842,60.3862238615881
193800,-0.34305727481842,60.0645315184185
193910,-0.342642962932587,59.9266595934636
194020,-0.343264430761337,59.6509223548477
194130,-0.342021465301514,59.6049672502941
194240,-0.34305727481842,59.6509223548477
194350,-0.342021465301514,59.6049672502941
194460,-0.342850118875504,59.6509223548477
194570,-0.342642962932587,59.6968774594014
194680,-0.342228621244431,59.88070448891
194790,-0.342021465301514,59.742839175249
194900,-0.342850118875504,59.7887942798027
195010,-0.342228621244431,59.9266662047576
195110,-0.342021465301514,60.1564483388198
195220,-0.342021465301514,60.3862304728821
195330,-0.342021465301514,60.524102397837
195440,-0.342642962932587,60.4781472932833
195550,-0.343471586704254,60.2943268750688
195660,-0.341814309358597,60.4321988000237
195770,-0.343264430761337,60.38624369547
195880,-0.34243580698967,60.524109009131
195990,-0.34243580698967,60.524109009131
196100,-0.341399997472763,60.5700641136846
196210,-0.342850118875504,60.3862370841761
196320,-0.342021465301514,60.4321921887297
196430,-0.342642962932587,60.2024100546675
196530,-0.34243580698967,60.0645381297125
196640,-0.34388592839241,60.0645381297125
196750,-0.343471586704254,59.7888008910966
196860,-0.342021465301514,59.9266728160516
196970,-0.342228621244431,59.9726345318992
197080,-0.342021465301514,60.1105064568542
197190,-0.341399997472763,60.4781539045773
197300,-0.34243580698967,60.3402819796224
197410,-0.342228621244431,60.38624369547
197520,-0.342228621244431,60.38624369547
197630,-0.34160715341568,60.524109009131
197740,-0.342642962932587,60.4321921887297
197840,-0.342642962932587,60.2024100546675
197950,-0.342228621244431,60.1104998455602
198060,-0.342228621244431,60.3402819796224
198170,-0.341399997472763,60.6619743227919
198280,-0.342642962932587,60.7998396364529
198390,-0.342850118875504,60.524102397837
198500,-0.34243580698967,60.5700575023906
198610,-0.342850118875504,60.524102397837
198720,-0.34243580698967,60.3862304728821
198830,-0.34243580698967,60.2943136524808
198940,-0.342850118875504,60.2024034433735
199050,-0.341814309358597,60.1104932342662
199160,-0.343264430761337,59.9266728160516
199260,-0.342228621244431,60.0185896364529
199370,-0.341814309358597,60.2943268750688
199480,-0.342850118875504,60.2483717705151
199590,-0.34305727481842,60.1105064568542
199700,-0.341399997472763,60.4781539045773
199810,-0.342021465301514,60.7998462477469
199920,-0.343264430761337,60.8917564568542
200030,-0.342642962932587,60.8917564568542
200140,-0.34305727481842,60.5700641136846
200250,-0.34243580698967,60.2024100546675
200360,-0.341192841529846,60.4781472932833
200470,-0.34243580698967,60.4781472932833
200570,-0.342850118875504,60.2483651592211
200680,-0.342850118875504,60.0645381297125
200790,-0.34388592839241,59.742845786543
200900,-0.340571343898773,60.0645381297125
201010,-0.34305727481842,59.8807111002039
201120,-0.343678742647171,59.6509355774357
201230,-0.342228621244431,59.4671151592211
201340,-0.342228621244431,59.5130768750688
201450,-0.342021465301514,59.742859009131
201560,-0.34243580698967,59.6509421887297
201670,-0.342021465301514,59.6968972932833
201780,-0.343678742647171,59.6049870841761
201890,-0.342021465301514,59.4211666659615
201990,-0.34243580698967,59.2832947410065
202100,-0.342021465301514,59.3752115614078
202210,-0.34160715341568,59.6509488000237
202320,-0.342228621244431,59.6969105158713
202430,-0.343471586704254,59.6509554113177
202540,-0.343264430761337,59.4671349931031
202650,-0.342850118875504,59.5590452022104
202760,-0.341814309358597,59.4671349931031
202870,-0.343471586704254,59.4211798885494
202980,-0.342228621244431,59.3292696794422
203090,-0.34305727481842,59.0994875453799
203200,-0.342850118875504,59.0075773362726
203300,-0.342642962932587,59.1913977544872
203410,-0.342228621244431,59.0994875453799
203520,-0.343264430761337,59.0535324408263
203630,-0.342228621244431,59.0535324408263
203740,-0.342642962932587,58.8697054113177
203850,-0.343264430761337,58.7318400976568
203960,-0.34243580698967,58.5939681727018
204070,-0.342228621244431,58.5480130681482
204180,-0.342228621244431,58.5020579635945
204290,-0.342228621244431,58.4561028590409
204400,-0.342850118875504,58.5020579635945
204510,-0.342228621244431,58.5939747839958
204620,-0.342021465301514,58.5480196794422
204720,-0.342642962932587,58.5480196794422
204830,-0.342642962932587,58.2263273362726
204940,-0.342850118875504,58.180372231719
205050,-0.342850118875504,58.1344171271653
205160,-0.34077849984169,58.2722890521203
205270,-0.342228621244431,58.5020711861825
205380,-0.342021465301514,58.5939880065838
205490,-0.342850118875504,58.5020777974765
205600,-0.34243580698967,58.5020777974765
205710,-0.34077849984169,59.1454624838156
205820,-0.342021465301514,59.2373793042168
205930,-0.342021465301514,59.1914241996632
206030,-0.34160715341568,59.2373793042168
206140,-0.341814309358597,59.5131165428327
206250,-0.342228621244431,59.605033363234
206360,-0.34243580698967,59.3752512291718
206470,-0.342642962932587,59.3292961246181
206580,-0.34305727481842,59.1454690951095
206690,-0.34243580698967,59.0075971701546
206800,-0.34243580698967,59.0075971701546
206910,-0.341399997472763,59.0075971701546
207020,-0.342021465301514,59.0535522747083
207130,-0.342021465301514,59.0535522747083
207240,-0.34243580698967,58.961635454307
207350,-0.343264430761337,58.5939880065838
207450,-0.343264430761337,58.5020777974765
207560,-0.342228621244431,58.5939946178778
207670,-0.341814309358597,58.8697318564937
207780,-0.34243580698967,59.0075971701546
207890,-0.342228621244431,59.0995139905559
208000,-0.34160715341568,59.4671614382791
208110,-0.34160715341568,59.5590716473864
208220,-0.341399997472763,59.9267190951095
208330,-0.341399997472763,60.0645844087705
208440,-0.341814309358597,60.2943665428327
208550,-0.34305727481842,60.2024563337254
208660,-0.34243580698967,60.1564946178778
208760,-0.341814309358597,60.2024497224314
208870,-0.342850118875504,60.2024497224314
208980,-0.341399997472763,60.386270140646
209090,-0.341192841529846,60.5700905588606
209200,-0.342642962932587,60.4322186339057
209310,-0.342642962932587,60.2943467089507
209420,-0.34305727481842,60.2024364998435
209530,-0.342021465301514,60.524128843013
209640,-0.342642962932587,60.3403018135044
209750,-0.343264430761337,60.3403018135044
209860,-0.342021465301514,60.4322186339057
209970,-0.342228621244431,60.4781803497533
210080,-0.342021465301514,60.3403150360924
210180,-0.342642962932587,60.386270140646
210290,-0.34243580698967,60.2943533202447
210400,-0.34243580698967,60.3403084247984
210510,-0.34160715341568,60.524135454307
210620,-0.340571343898773,61.2594369610473
210730,-0.34160715341568,61.6730395133241
210840,-0.34243580698967,61.5811226929229
210950,-0.342850118875504,61.4432507679679
211060,-0.34305727481842,61.2134686339057
211170,-0.340985685586929,61.305378843013
211280,-0.343264430761337,61.1215584247984
211390,-0.342642962932587,61.0296416043971
211490,-0.343264430761337,60.7998594703349
211600,-0.342850118875504,60.524122231719
211710,-0.342850118875504,60.4781671271653
211820,-0.34160715341568,60.7079492612276
211930,-0.342228621244431,60.7079492612276
212040,-0.342228621244431,60.7079492612276
212150,-0.342642962932587,60.4322120226117
212260,-0.342021465301514,60.5700839475666
212370,-0.341399997472763,60.8917762907361
212480,-0.34243580698967,60.8917762907361
212590,-0.342021465301514,61.0756033202447
212700,-0.342228621244431,61.1215650360924
212810,-0.342021465301514,61.2134818564937
212910,-0.342850118875504,61.2134818564937
213020,-0.343678742647171,60.7998793042168
213130,-0.34160715341568,61.16752675194
213240,-0.342021465301514,61.2134818564937
213350,-0.34160715341568,61.2594369610473
213460,-0.341399997472763,61.5811293042168
213570,-0.342021465301514,61.8109114382791
213680,-0.342850118875504,61.4892190951095
213790,-0.34160715341568,61.5811293042168
213900,-0.342228621244431,61.8109114382791
214010,-0.34243580698967,61.8568665428327
214120,-0.342850118875504,61.9028216473864
214220,-0.342850118875504,61.8109114382791
214330,-0.34160715341568,61.7190012291718
214440,-0.341399997472763,61.948783363234
214550,-0.341814309358597,62.1785654972962
214660,-0.343264430761337,62.086655288189
214770,-0.341399997472763,62.6381297654207
214880,-0.342850118875504,62.1326103927426
214990,-0.34305727481842,62.1326103927426
215100,-0.342642962932587,62.3623859155108
215210,-0.34388592839241,61.9947318564937
215320,-0.342850118875504,61.8568599315387
215430,-0.342021465301514,61.8568599315387
215540,-0.34305727481842,61.7189946178778
215640,-0.343264430761337,61.4432573792619
215750,-0.342642962932587,61.6730329020301
215860,-0.34243580698967,61.5811160816288
215970,-0.34305727481842,61.4432507679679
216080,-0.342642962932587,61.305378843013
216190,-0.34160715341568,61.305378843013
216300,-0.342642962932587,61.2134620226117
216410,-0.341814309358597,61.5811094703349
216520,-0.342021465301514,0
216630,-0.34305727481842,70.1556925422949
216740,-0.34305727481842,69.2181970379215
216850,-0.341814309358597,58.7237678926799
216950,-0.342021465301514,58.8539731040353
217060,-0.34160715341568,51.2276854525463
217170,-0.343264430761337,57.1288061509828
217280,-0.34243580698967,57.2264606448596
217390,-0.342021465301514,57.3241151387365
217500,-0.342021465301514,57.9100561509828
217610,-0.342228621244431,57.9100561509828
217720,-0.342021465301514,58.2030336815983
217830,-0.342228621244431,58.6913201999676
217940,-0.342850118875504,58.4960112122139
218050,-0.342228621244431,58.4960112122139
218160,-0.34243580698967,58.3983426693521
218270,-0.342228621244431,58.3983426693521
218370,-0.342228621244431,58.6913201999676
218480,-0.342021465301514,58.7889746938445
218590,-0.342850118875504,58.3983426693521
218700,-0.342021465301514,58.6913201999676
218810,-0.341399997472763,52.6910041360294
218920,-0.341814309358597,53.1250374640345
219030,-0.342642962932587,53.2118416320333
219140,-0.34243580698967,52.5173833120205
219250,-0.341814309358597,52.6909916480179
219360,-0.34160715341568,52.8645999840153
219470,-0.34160715341568,53.3854374800192
219580,-0.342021465301514,53.5590583040281
219680,-0.341399997472763,53.2986333120205
219790,-0.341399997472763,53.5590458160166
219900,-0.342642962932587,53.298620824009
220010,-0.34243580698967,52.9513916640026
220120,-0.342021465301514,52.8645874960038
220230,-0.34243580698967,52.7777708399936
220340,-0.34160715341568,53.125
220450,-0.341192841529846,48.3594547985211
220560,-0.342642962932587,48.5157025506754
220670,-0.34305727481842,48.2813309224439
220780,-0.342228621244431,48.3594660377494
220890,-0.34160715341568,48.2813421616722
221000,-0.342228621244431,48.2032182855951
221100,-0.342228621244431,48.1250944095179
221210,-0.342642962932587,48.0469705334407
221320,-0.342228621244431,48.4376011530549
221430,-0.343264430761337,48.4376011530549
221540,-0.34243580698967,48.3594660377494
221650,-0.341814309358597,48.3594660377494
221760,-0.342228621244431,48.4376011530549
221870,-0.342021465301514,48.5157250291321
221980,-0.342850118875504,48.0469705334407
222090,-0.342021465301514,47.8907227812864
222200,-0.34160715341568,47.8125989052092
222310,-0.342021465301514,47.5782272769777
222420,-0.34243580698967,47.3438444095179
222520,-0.34243580698967,47.5782160377494
222630,-0.342228621244431,47.6563511530549
222740,-0.342850118875504,47.2657205334407
222850,-0.342642962932587,47.3438444095179
222960,-0.341814309358597,47.1875966573636
223070,-0.342021465301514,46.8751011530549
223180,-0.341814309358597,47.1876078965919
223290,-0.342228621244431,47.3438668879746
223400,-0.340985685586929,43.7501634798985
223510,-0.341814309358597,43.8211852783082
223620,-0.342642962932587,43.8211852783082
223730,-0.34243580698967,44.1052724719468
223830,-0.343264430761337,43.6791314639952
223940,-0.34243580698967,43.6080994480919
224050,-0.34243580698967,43.4660456337789
224160,-0.34160715341568,43.8211648433209
224270,-0.342021465301514,43.9632186576339
224380,-0.34243580698967,43.9632186576339
224490,-0.341814309358597,43.8921968592242
224600,-0.341814309358597,43.4660558512725
224710,-0.34077849984169,43.7501532624049
224820,-0.341814309358597,43.9632288751275
224930,-0.342228621244431,44.1763044878502
225040,-0.342642962932587,44.3183480846695
225150,-0.342642962932587,43.7501634798985
225250,-0.342850118875504,43.8922070767178
225360,-0.342642962932587,43.8922070767178
225470,-0.341814309358597,44.3893698830792
225580,-0.342850118875504,44.3893698830792
225690,-0.342021465301514,44.6734672942115
225800,-0.342021465301514,44.5314236973922
225910,-0.342642962932587,44.3893698830792
226020,-0.342021465301514,44.4603916814888
226130,-0.341814309358597,44.7444890926212
226240,-0.343471586704254,44.2473262862598
226350,-0.342021465301514,44.0342608910308
226460,-0.342021465301514,44.1763147053438
226560,-0.342850118875504,43.8922172942115
226670,-0.34305727481842,43.6081198830792
226780,-0.341814309358597,43.6791416814888
226890,-0.34160715341568,44.1052826894405
227000,-0.342850118875504,44.3893698830792
227110,-0.34160715341568,44.3893698830792
227220,-0.343264430761337,43.9632288751275
227330,-0.34243580698967,43.6791314639952
227440,-0.341814309358597,43.5370878671758
227550,-0.342850118875504,43.2529904560435
227660,-0.342021465301514,43.5370878671758
227770,-0.342021465301514,43.3950442703565
227880,-0.34243580698967,43.3240122544532
227980,-0.342021465301514,43.4660660687662
228090,-0.342642962932587,43.5370878671758
228200,-0.342850118875504,43.5370878671758
228310,-0.342642962932587,43.1819686576339
228420,-0.341814309358597,43.0399250608145
228530,-0.341814309358597,43.0399250608145
228640,-0.341814309358597,43.5370878671758
228750,-0.34160715341568,43.4660660687662
228860,-0.34160715341568,43.8922070767178
228970,-0.34243580698967,44.1052724719468
229080,-0.34160715341568,44.4603916814888
229190,-0.342642962932587,44.8865326894405
229290,-0.342021465301514,45.1706301005728
229400,-0.342850118875504,44.8865326894405
229510,-0.342642962932587,45.0285762862598
229620,-0.342228621244431,45.3836954958018
229730,-0.341814309358597,45.6677929069342
229840,-0.34305727481842,45.4547275117052
229950,-0.342228621244431,45.7388249228375
230060,-0.34160715341568,46.0939441323795
230170,-0.34305727481842,45.5967813260182
230280,-0.342021465301514,45.8098569387408
230390,-0.34160715341568,45.8808787371505
230500,-0.343264430761337,45.4547377291988
230610,-0.341814309358597,45.8808787371505
230710,-0.34305727481842,45.8808787371505
230820,-0.342228621244431,45.7388351403311
230930,-0.343264430761337,45.3126941323795
231040,-0.342642962932587,44.9575749228375
231150,-0.342228621244431,45.3126941323795
231260,-0.341814309358597,45.5257697451021
231370,-0.342642962932587,45.3126941323795
231480,-0.34243580698967,45.1706403180665
231590,-0.34160715341568,45.3837057132955
231700,-0.342228621244431,45.3126839148858
231810,-0.342021465301514,45.3837057132955
231920,-0.342228621244431,45.5967813260182
232020,-0.34243580698967,45.5257493101148
232130,-0.342850118875504,45.3837057132955
232240,-0.34243580698967,45.3126736973922
232350,-0.34388592839241,44.7444788751275
232460,-0.342642962932587,44.5314032624049
232570,-0.34243580698967,44.6734468592242
232680,-0.34077849984169,45.0995878671758
232790,-0.343678742647171,44.3183378671758
232900,-0.342021465301514,44.2473160687662
233010,-0.343471586704254,43.9632288751275
233120,-0.342021465301514,44.1052826894405
233230,-0.342850118875504,43.7501634798985
233340,-0.342850118875504,43.3240224719468
233440,-0.341814309358597,43.2530006735372
233550,-0.342850118875504,42.9689032624049
233660,-0.342228621244431,42.6848160687662
233770,-0.342228621244431,42.4007288751275
233880,-0.342021465301514,42.6138044878502
233990,-0.342021465301514,42.7558583021632
234100,-0.342228621244431,42.6848365037535
234210,-0.34160715341568,42.9689339148858
234320,-0.342850118875504,42.5427929069342
234430,-0.34305727481842,41.9035865037535
234540,-0.34243580698967,41.9746083021632
234650,-0.342228621244431,42.2587057132955
234750,-0.34305727481842,41.9746083021632
234860,-0.342021465301514,41.8325647053438
234970,-0.34160715341568,42.0456301005728
235080,-0.341399997472763,42.3297172942115
235190,-0.342228621244431,42.4717711085245
235300,-0.342021465301514,42.5427929069342
235410,-0.342228621244431,42.8979121164762
235520,-0.34305727481842,42.6848467212472
235630,-0.342850118875504,42.3297275117052
235740,-0.34160715341568,42.5427929069342
235850,-0.34160715341568,42.6848365037535
235960,-0.342642962932587,42.7558583021632
236070,-0.342642962932587,42.5427826894405
236170,-0.34243580698967,42.2586852783082
236280,-0.34160715341568,42.4007288751275
236390,-0.34305727481842,42.1876634798985
236500,-0.34243580698967,42.1876634798985
236610,-0.341399997472763,42.4717506735372
236720,-0.34243580698967,42.6137942703565
236830,-0.342228621244431,42.7558480846695
236940,-0.342850118875504,42.4007288751275
237050,-0.342642962932587,42.1876532624049
237160,-0.34160715341568,42.2586750608145
237270,-0.34160715341568,42.4717404560435
237380,-0.341399997472763,42.3296968592242
237480,-0.34160715341568,42.4007186576339
237590,-0.342642962932587,42.4007186576339
237700,-0.340571343898773,43.0399352783082
237810,-0.34160715341568,43.6081198830792
237920,-0.341814309358597,43.8211954958018
238030,-0.341814309358597,44.0342711085245
238140,-0.342850118875504,43.6081301005728
238250,-0.342021465301514,43.6081301005728
238360,-0.34160715341568,43.8922275117052
238470,-0.342228621244431,43.7501839148858
238580,-0.342228621244431,43.6081403180665
238690,-0.34388592839241,42.5427826894405
238800,-0.342021465301514,42.4717608910308
238900,-0.34243580698967,42.4007288751275
239010,-0.342021465301514,42.6138044878502
239120,-0.342228621244431,42.7558583021632
239230,-0.342021465301514,43.0399557132955
239340,-0.341814309358597,43.3240531244278
239450,-0.342642962932587,43.0399557132955
239560,-0.34305727481842,42.9689339148858
239670,-0.34243580698967,42.8268801005728
239780,-0.342228621244431,42.7558583021632
239890,-0.34160715341568,43.1109775117052
240000,-0.343264430761337,42.6848365037535
240110,-0.342228621244431,42.5427929069342
240210,-0.341814309358597,43.1109775117052
240320,-0.342850118875504,42.8268801005728
240430,-0.342850118875504,42.5427826894405
240540,-0.342021465301514,42.8268801005728
240650,-0.342228621244431,43.1109775117052
240760,-0.342228621244431,42.9689339148858
240870,-0.343678742647171,42.2587057132955
240980,-0.34243580698967,42.4007493101148
241090,-0.342850118875504,41.9746083021632
241200,-0.341814309358597,42.4717711085245
241310,-0.34243580698967,42.4717711085245
241420,-0.342228621244431,42.3297275117052
241530,-0.342228621244431,42.5428031244278
241630,-0.342642962932587,42.3297275117052
241740,-0.343471586704254,41.8325647053438
241850,-0.343471586704254,41.4774557132955
241960,-0.34160715341568,41.6194993101148
242070,-0.34160715341568,41.9746185196568
242180,-0.342228621244431,42.1876941323795
242290,-0.343264430761337,41.9746287371505
242400,-0.342021465301514,41.9036069387408
242510,-0.342021465301514,41.8325851403311
242620,-0.342228621244431,41.6905415435118
242730,-0.34160715341568,41.6905415435118
242840,-0.342228621244431,41.4774761482828
242940,-0.342021465301514,41.6195299625958
243050,-0.34160715341568,41.6195299625958
243160,-0.342642962932587,41.6195299625958
243270,-0.343264430761337,41.1933889546441
243380,-0.34077849984169,41.9036273737281
243490,-0.342228621244431,42.0456811880411
243600,-0.34243580698967,41.9746491721378
243710,-0.34243580698967,41.7615735594151
243820,-0.342850118875504,41.8325953578248
243930,-0.342021465301514,41.9036171562345
244040,-0.342021465301514,41.7615735594151
244150,-0.342228621244431,42.0456709705475
244260,-0.342850118875504,41.7615735594151
244360,-0.341399997472763,41.8325953578248
244470,-0.342642962932587,42.0456607530538
244580,-0.341192841529846,42.2587261482828
244690,-0.341399997472763,42.8269107530538
244800,-0.341399997472763,43.1109979466925
244910,-0.341814309358597,43.6081607530538
245020,-0.341814309358597,43.8922581641861
245130,-0.34305727481842,43.6081607530538
245240,-0.34160715341568,43.6791825514635
245350,-0.343471586704254,43.3950953578248
245460,-0.34243580698967,43.3950953578248
245570,-0.341814309358597,43.3240735594151
245670,-0.34243580698967,43.2530415435118
245780,-0.34243580698967,43.1109877291988
245890,-0.34305727481842,42.8268903180665
246000,-0.341399997472763,43.1820095276085
246110,-0.342850118875504,43.1820095276085
246220,-0.342228621244431,43.2530415435118
246330,-0.342021465301514,43.8922581641861
246440,-0.34305727481842,43.7502145673668
246550,-0.341814309358597,43.9632901800895
246660,-0.342642962932587,43.3240735594151
246770,-0.34243580698967,43.7502043498731
246880,-0.341814309358597,43.8212261482828
246990,-0.34243580698967,44.1763351403311
247090,-0.343264430761337,43.7501941323795
247200,-0.34077849984169,44.4604325514635
247310,-0.34243580698967,44.6024761482828
247420,-0.342642962932587,44.3183787371505
247530,-0.34243580698967,44.4604223339698
247640,-0.34243580698967,44.3893903180665
247750,-0.34243580698967,44.3183583021632
247860,-0.343264430761337,43.8922172942115
247970,-0.343678742647171,43.3240326894405
248080,-0.342228621244431,43.3240326894405
248190,-0.343264430761337,42.7558480846695
248300,-0.342228621244431,42.9689236973922
248400,-0.34243580698967,43.1819890926212
248510,-0.34243580698967,43.1819890926212
248620,-0.342850118875504,42.9689134798985
248730,-0.341814309358597,43.3950544878502
248840,-0.342642962932587,43.1819788751275
248950,-0.342021465301514,43.0399352783082
249060,-0.342642962932587,42.6137942703565
249170,-0.342850118875504,42.4007186576339
249280,-0.34160715341568,42.5427622544532
249390,-0.342850118875504,42.3296866417305
249500,-0.341192841529846,42.9688930449112
249610,-0.342850118875504,42.9688930449112
249720,-0.342850118875504,42.5427520369595
249820,-0.34243580698967,42.2586546258272
249930,-0.341399997472763,42.6847956337789
250040,-0.341399997472763,43.1109366417305
250150,-0.34243580698967,43.1109366417305
250260,-0.342021465301514,42.9688930449112
250370,-0.342642962932587,43.1109366417305
250480,-0.342642962932587,43.0399148433209
250590,-0.34243580698967,42.6847956337789
250700,-0.34243580698967,42.6847956337789
250810,-0.342021465301514,42.7558174321885
250920,-0.34243580698967,42.8978610290079
251030,-0.34243580698967,42.9688828274175
251130,-0.340985685586929,43.1819482226465
251240,-0.34243580698967,42.8978508115142
251350,-0.341399997472763,42.8978508115142
251460,-0.343264430761337,42.3296662067432
251570,-0.342228621244431,42.4717200210562
251680,-0.342021465301514,41.9745572146949
251790,-0.341814309358597,41.9035354162852
251900,-0.34243580698967,41.6904598035626
252010,-0.34305727481842,41.2643187956109
252120,-0.34243580698967,41.4063623924302
252230,-0.342642962932587,41.1932867797076
252340,-0.343264430761337,40.6251021749366
252450,-0.342228621244431,40.6251021749366
252550,-0.342228621244431,40.6251021749366
252660,-0.341399997472763,41.4773841908399
252770,-0.341814309358597,41.5484059892496
252880,-0.342228621244431,41.6194380051529
252990,-0.342850118875504,41.3353405940206
253100,-0.34243580698967,41.2643085781172
253210,-0.342021465301514,41.2643085781172
253320,-0.341814309358597,41.2643085781172
253430,-0.34160715341568,41.6194277876592
253540,-0.342642962932587,41.7614713844786
253650,-0.342642962932587,41.6904495860689
253760,-0.342850118875504,41.4773739733462
253860,-0.34243580698967,41.1932765622139
253970,-0.342228621244431,41.5483957717559
254080,-0.34243580698967,41.4773637558526
254190,-0.341814309358597,41.4773637558526
254300,-0.341399997472763,41.9745265622139
254410,-0.342850118875504,41.9745265622139
254520,-0.342642962932587,41.7614509494913
254630,-0.341814309358597,41.9034945463106
254740,-0.34243580698967,41.8324625304073
254850,-0.342228621244431,42.3296253367686
254960,-0.342228621244431,42.4006573526719
255070,-0.341814309358597,42.7557765622139
255180,-0.341814309358597,42.7557765622139
255280,-0.342021465301514,42.8978303765269
255390,-0.34243580698967,42.8267983606236
255500,-0.342850118875504,42.6137227479009
255610,-0.341814309358597,42.8978201590332
255720,-0.342021465301514,43.3949829653946
255830,-0.340571343898773,44.3893085781172
255940,-0.343264430761337,43.8211239733462
256050,-0.342228621244431,43.6080585781172
256160,-0.342850118875504,43.3949829653946
256270,-0.342642962932587,43.6080483606236
256380,-0.342850118875504,43.3239509494913
256490,-0.342642962932587,43.1108753367686
256590,-0.34160715341568,43.3239407319976
256700,-0.342850118875504,42.8977997240459
256810,-0.343471586704254,42.4716587160943
256920,-0.342021465301514,42.4716587160943
257030,-0.342228621244431,42.2585933208653
257140,-0.34243580698967,42.3296151192749
257250,-0.342642962932587,42.5426805145039
257360,-0.342642962932587,41.9034638938296
257470,-0.34160715341568,42.1165292890586
257580,-0.34243580698967,42.1165292890586
257690,-0.342850118875504,41.9744856922393
257800,-0.342228621244431,42.1875613049619
257910,-0.342642962932587,41.9744856922393
258010,-0.341814309358597,42.0455074906489
258120,-0.342021465301514,42.1165292890586
258230,-0.342642962932587,42.1875510874683
258340,-0.342228621244431,41.9034638938296
258450,-0.341814309358597,42.1875613049619
258560,-0.342021465301514,41.9034741113233
258670,-0.342021465301514,41.6904087160943
258780,-0.34243580698967,41.3352895065523
258890,-0.342642962932587,41.05119209542
259000,-0.34160715341568,41.1222138938296
259110,-0.342642962932587,41.2642574906489
259220,-0.34160715341568,41.2642574906489
259320,-0.34243580698967,41.6193664826973
259430,-0.34160715341568,41.9034638938296
259540,-0.342021465301514,41.83244209542
259650,-0.341814309358597,42.0455177081426
259760,-0.343678742647171,41.6193869176846
259870,-0.34243580698967,41.8324523129136
259980,-0.34160715341568,41.7614305145039
260090,-0.341814309358597,42.1165497240459
260200,-0.34160715341568,42.3296151192749
260310,-0.343264430761337,41.9034741113233
260420,-0.342228621244431,42.1875715224556
260530,-0.34305727481842,41.7614305145039
260640,-0.34243580698967,41.8324523129136
260740,-0.342642962932587,41.7614305145039
260850,-0.342021465301514,41.6904087160943
260960,-0.340985685586929,42.1875715224556
261070,-0.34305727481842,42.2585933208653
261180,-0.341399997472763,42.0455177081426
261290,-0.343678742647171,41.6193869176846
261400,-0.342228621244431,41.7614407319976
261510,-0.343471586704254,41.4063317399493
261620,-0.341814309358597,41.6194073526719
261730,-0.34243580698967,41.6194073526719
261840,-0.342228621244431,41.9745265622139
261950,-0.342642962932587,42.3296355542622
262050,-0.342850118875504,42.1165599415396
262160,-0.342642962932587,42.3296253367686
262270,-0.34305727481842,42.0455279256363
262380,-0.341814309358597,42.2586035383589
262490,-0.341192841529846,42.6847445463106
262600,-0.342642962932587,42.7557663447203
262710,-0.34160715341568,42.8267881431299
262820,-0.343264430761337,42.6137227479009
262930,-0.343264430761337,42.1875817399493
263040,-0.34160715341568,42.5427009494913
263150,-0.341192841529846,43.1108855542622
263260,-0.34243580698967,42.8267881431299
263370,-0.342642962932587,42.8978099415396
263470,-0.34160715341568,42.7557663447203
263580,-0.342642962932587,42.8267881431299
263690,-0.34243580698967,42.9688317399493
263800,-0.343264430761337,42.6847445463106
263910,-0.34305727481842,42.1165599415396
264020,-0.341192841529846,42.1875817399493
264130,-0.34243580698967,42.1875817399493
264240,-0.34243580698967,42.0455279256363
264350,-0.342850118875504,41.9745061272266
264460,-0.342021465301514,42.1875817399493
264570,-0.34243580698967,42.1875817399493
264680,-0.341399997472763,42.5427009494913
264780,-0.34243580698967,42.4006471351783
264890,-0.34305727481842,42.1875817399493
265000,-0.342021465301514,42.3296355542622
265110,-0.341814309358597,42.0455483606236
265220,-0.342642962932587,41.9745265622139
265330,-0.342021465301514,41.7614611669849
265440,-0.341399997472763,42.4006675701656
265550,-0.342021465301514,42.4716893685752
265660,-0.340985685586929,42.8267983606236
265770,-0.34243580698967,42.6137227479009
265880,-0.342642962932587,42.5427009494913
265990,-0.341814309358597,42.9688419574429
266100,-0.342228621244431,43.0398739733462
266200,-0.341814309358597,43.3239713844786
266310,-0.34160715341568,43.8921559892496
266420,-0.343471586704254,43.4660149812979
266530,-0.34243580698967,43.3949829653946
266640,-0.342850118875504,42.8978201590332
266750,-0.34243580698967,42.6847445463106
266860,-0.342021465301514,42.7557663447203
266970,-0.341814309358597,43.1108855542622
267090,-0.34243580698967,43.1108855542622
267190,-0.341814309358597,43.1819073526719
267300,-0.343264430761337,42.6847445463106
267410,-0.341399997472763,42.7557663447203
267510,-0.342850118875504,42.6847445463106
267620,-0.342228621244431,42.8267983606236
267730,-0.342228621244431,43.0398739733462
267840,-0.342642962932587,42.9688521749366
267950,-0.341814309358597,43.1108957717559
268060,-0.342850118875504,42.9688521749366
268170,-0.342021465301514,42.8978303765269
268280,-0.342850118875504,42.4006675701656
268390,-0.342850118875504,42.4006675701656
268500,-0.342228621244431,42.5427213844786
268610,-0.34305727481842,42.1165803765269
268720,-0.34243580698967,42.1165803765269
268830,-0.342850118875504,41.9035047638042
268930,-0.34243580698967,41.8324727479009
269040,-0.341192841529846,42.0455381431299
269150,-0.342021465301514,41.9745163447203
269260,-0.342642962932587,41.7614407319976
269370,-0.340364187955856,42.4716791510816
269480,-0.340157032012939,43.3949829653946
269590,-0.342228621244431,43.2529393685752
269700,-0.342642962932587,43.0398637558526
269810,-0.342021465301514,42.5427009494913
269920,-0.342228621244431,42.8978201590332
270030,-0.34243580698967,42.8267881431299
270140,-0.341814309358597,43.1819073526719
270240,-0.343471586704254,42.8978201590332
270350,-0.342021465301514,43.1819175701656
270460,-0.34243580698967,43.2529393685752
270570,-0.341814309358597,43.1819175701656
270680,-0.342850118875504,43.1819175701656
270790,-0.341192841529846,43.9631675701656
270900,-0.343264430761337,43.5370265622139
271010,-0.34243580698967,43.4659945463106
271120,-0.34160715341568,43.7500919574429
271230,-0.342228621244431,43.8921457717559
271340,-0.342228621244431,44.0341995860689
271450,-0.342021465301514,43.8921559892496
271560,-0.342021465301514,44.0342098035626
271660,-0.341399997472763,44.5313726099239
271770,-0.342850118875504,44.3182969972012
271880,-0.34160715341568,44.6734162067432
271990,-0.342021465301514,44.6023944083336
272100,-0.342228621244431,44.5313726099239
272210,-0.342021465301514,44.7444482226465
272320,-0.343471586704254,44.3183072146949
272430,-0.34243580698967,44.1052316019722
272540,-0.34077849984169,44.5313726099239
272650,-0.342021465301514,44.5313726099239
272760,-0.342228621244431,44.6024046258272
272870,-0.34305727481842,44.4603610290079
272970,-0.342642962932587,44.1052418194659
273080,-0.342021465301514,44.3183174321885
273190,-0.34243580698967,44.0342200210562
273300,-0.342642962932587,43.9631982226465
273410,-0.343264430761337,43.3950136178755
273520,-0.34305727481842,43.0398944083336
273630,-0.342021465301514,42.9688726099239
273740,-0.341814309358597,43.6080790131046
273850,-0.342642962932587,43.5370572146949
273960,-0.342642962932587,43.1819380051529
274070,-0.342850118875504,42.8268187956109
274180,-0.34388592839241,42.0455585781172
274290,-0.34305727481842,42.1165803765269
274390,-0.341814309358597,42.2586239733462
274500,-0.342228621244431,42.5427213844786
274610,-0.342642962932587,42.4716995860689
274720,-0.342228621244431,42.6137534003819
274830,-0.342850118875504,42.3296559892496
274940,-0.341814309358597,42.0455687956109
275050,-0.343264430761337,41.9745469972012
275160,-0.34243580698967,41.6194277876592
275270,-0.342228621244431,42.1165905940206
275380,-0.342642962932587,41.9745367797076
275490,-0.342228621244431,42.4006777876592
275600,-0.34160715341568,42.4716995860689
275700,-0.342228621244431,42.5427316019722
275810,-0.342642962932587,42.4006777876592
275920,-0.342850118875504,42.3296559892496
276030,-0.342228621244431,42.5427316019722
276140,-0.342228621244431,42.6847854162852
276250,-0.34160715341568,43.1819482226465
276360,-0.342850118875504,42.8268290131046
276470,-0.342228621244431,42.4717200210562
276580,-0.343678742647171,42.1166110290079
276690,-0.342642962932587,41.7614918194659
276800,-0.342021465301514,42.1876328274175
276910,-0.342228621244431,42.5427520369595
277020,-0.342021465301514,42.4007084401402
277120,-0.34243580698967,41.9745674321885
277230,-0.341814309358597,42.1876430449112
277340,-0.341192841529846,42.6848058512725
277450,-0.342642962932587,42.3296866417305
277560,-0.341814309358597,42.6137840528629
277670,-0.34160715341568,42.8978814639952
277780,-0.34305727481842,42.9689032624049
277890,-0.342642962932587,43.1109468592242
278000,-0.342021465301514,42.8268596655855
278110,-0.342021465301514,42.9689134798985
278220,-0.343264430761337,42.6848262862598
278330,-0.342021465301514,42.9689236973922
278430,-0.342642962932587,42.7558480846695
278540,-0.341814309358597,42.9689236973922
278650,-0.342021465301514,42.7558583021632
278760,-0.34305727481842,42.5427929069342
278870,-0.342228621244431,42.8268903180665
278980,-0.341399997472763,43.0399557132955
279090,-0.341814309358597,43.0399557132955
279200,-0.341814309358597,43.3240531244278
279310,-0.34160715341568,43.4660967212472
279420,-0.34243580698967,43.1109775117052
279530,-0.34243580698967,42.9689236973922
279640,-0.341814309358597,42.6848365037535
279750,-0.342228621244431,42.7558685196568
279850,-0.342021465301514,42.9689441323795
279960,-0.342021465301514,42.8979223339698
280070,-0.343264430761337,42.5428031244278
280180,-0.342642962932587,42.2587057132955
280290,-0.34243580698967,41.9746083021632
280400,-0.342228621244431,42.4007493101148
280510,-0.342642962932587,42.3297275117052
280620,-0.34243580698967,42.4717711085245
280730,-0.342021465301514,42.6138249228375
280840,-0.341192841529846,42.8979121164762
280950,-0.342021465301514,42.8268903180665
281060,-0.342228621244431,42.8979223339698
281160,-0.342228621244431,42.7558787371505
281270,-0.342642962932587,42.9689441323795
281380,-0.34243580698967,42.6138249228375
281490,-0.341814309358597,42.9689441323795
281600,-0.342850118875504,42.7558685196568
281710,-0.34160715341568,42.9689339148858
281820,-0.342228621244431,43.1109877291988
281930,-0.342642962932587,42.8268903180665
282040,-0.342021465301514,43.1109877291988
282150,-0.342021465301514,43.1109877291988
282260,-0.343678742647171,42.8269005355601
282370,-0.342021465301514,43.1109979466925
282480,-0.342228621244431,43.1109979466925
282580,-0.34160715341568,43.6081607530538
282690,-0.342228621244431,43.6791927689571
282800,-0.342642962932587,43.7502145673668
282910,-0.343264430761337,43.4661273737281
283020,-0.34243580698967,43.0399863657765
283130,-0.342021465301514,43.0399863657765
283240,-0.342228621244431,43.1820401800895
283350,-0.342228621244431,42.5428337769088
283460,-0.341399997472763,42.1166927689571
283570,-0.341814309358597,42.2587363657765
283680,-0.34243580698967,42.3297581641861
283790,-0.342228621244431,42.2587363657765
283890,-0.342021465301514,42.3297581641861
284000,-0.341192841529846,42.7558991721378
284110,-0.342850118875504,42.4007799625958
284220,-0.341814309358597,42.9689645673668
284340,-0.342228621244431,42.8979427689571
284440,-0.341192841529846,43.3240837769088
284550,-0.343678742647171,42.6848773737281
284660,-0.34160715341568,43.1110183816798
284770,-0.342021465301514,42.8269311880411
284880,-0.343471586704254,42.7559093896315
284990,-0.34243580698967,42.7559093896315
285100,-0.342021465301514,42.6138657928121
285210,-0.341814309358597,42.7559093896315
285310,-0.34243580698967,42.6848773737281
285420,-0.342228621244431,42.6138555753185
285530,-0.34243580698967,42.4718017610055
285640,-0.342228621244431,42.1877145673668
285750,-0.342021465301514,42.4718119784991
285860,-0.341399997472763,42.5428337769088
285970,-0.342642962932587,42.3297581641861
286080,-0.34160715341568,42.5428235594151
286190,-0.343264430761337,42.1166825514635
286300,-0.342850118875504,42.3297479466925
286410,-0.342228621244431,42.4007799625958
286520,-0.342228621244431,41.9036171562345
286620,-0.340571343898773,42.4007799625958
286730,-0.341814309358597,42.5428235594151
286840,-0.342850118875504,42.6138453578248
286950,-0.342642962932587,42.6138453578248
287060,-0.342228621244431,42.5428235594151
287170,-0.342228621244431,42.6138555753185
287280,-0.34243580698967,42.6848773737281
287390,-0.342021465301514,43.1110183816798
287500,-0.342642962932587,43.2530619784991
287610,-0.341814309358597,43.3240837769088
287720,-0.342228621244431,43.1820401800895
287830,-0.342850118875504,43.1110183816798
287940,-0.342228621244431,43.2530721959928
288040,-0.34243580698967,43.3951157928121
288150,-0.342228621244431,43.9633106150768
288260,-0.342021465301514,44.3184298246188
288370,-0.34305727481842,43.8922888166671
288480,-0.343471586704254,43.4661478087154
288590,-0.342021465301514,43.6792234214381
288700,-0.342228621244431,43.6792234214381
288810,-0.342642962932587,43.7502452198478
288920,-0.341814309358597,43.7502452198478
289030,-0.341814309358597,44.2474080262091
289140,-0.341814309358597,44.4604836389318
289250,-0.342228621244431,44.4604836389318
289350,-0.343264430761337,44.2474182437028
289460,-0.34077849984169,44.7445810500641
289570,-0.34243580698967,44.4604836389318
289680,-0.342021465301514,44.5315054373414
289790,-0.342642962932587,44.5315054373414
289900,-0.34243580698967,44.6735490341608
290010,-0.340985685586929,45.0996798246188
290120,-0.34077849984169,45.5968426309801
290230,-0.342228621244431,45.3837772357511
290340,-0.341814309358597,45.7388964452931
290450,-0.34243580698967,45.6678644293898
290560,-0.342021465301514,46.2360490341608
290670,-0.34243580698967,46.3070708325704
290770,-0.34160715341568,46.4491144293898
290880,-0.341192841529846,46.8042234214381
290990,-0.34160715341568,46.9462670182574
291100,-0.342021465301514,47.0883208325704
291210,-0.34160715341568,47.1593426309801
291320,-0.342021465301514,46.8752554373414
291430,-0.342021465301514,47.0883310500641
291540,-0.342850118875504,46.7332118405221
291650,-0.343678742647171,46.0229836389318
291760,-0.34243580698967,46.2360490341608
291870,-0.34243580698967,46.3070708325704
291980,-0.34160715341568,46.4491144293898
292080,-0.342228621244431,46.3780926309801
292190,-0.34243580698967,46.6621798246188
292300,-0.342228621244431,46.5911580262091
292410,-0.34077849984169,47.2303746468834
292520,-0.342021465301514,47.1593528484738
292630,-0.343471586704254,46.6621900421124
292740,-0.342021465301514,47.0173092516544
292850,-0.342642962932587,46.8752554373414
292960,-0.343471586704254,46.1650272357511
293070,-0.342021465301514,46.0940054373414
293180,-0.341814309358597,46.0940054373414
293290,-0.342021465301514,45.9519618405221
293400,-0.34243580698967,45.9519618405221
293500,-0.341399997472763,46.3070810500641
293610,-0.342850118875504,45.9519618405221
293720,-0.34243580698967,45.8809298246188
293830,-0.342228621244431,45.8099080262091
293940,-0.34160715341568,45.9519516230284
294050,-0.342228621244431,46.3070708325704
294160,-0.34243580698967,46.3780926309801
294270,-0.34388592839241,45.8809298246188
294380,-0.342228621244431,45.8809298246188
294490,-0.342642962932587,45.8809298246188
294600,-0.34305727481842,45.6678644293898
294710,-0.34160715341568,45.8099080262091
294810,-0.343264430761337,45.0996798246188
294920,-0.342021465301514,45.0996798246188
295030,-0.34243580698967,45.0286478087154
295140,-0.341814309358597,45.1706914055348
295250,-0.34243580698967,45.2417132039444
295360,-0.341192841529846,45.6678542118961
295470,-0.34243580698967,45.4547785991734
295580,-0.34305727481842,45.3837568007638
295690,-0.34243580698967,45.0996593896315
295800,-0.342642962932587,44.9576055753185
295910,-0.34305727481842,44.8155619784991
296020,-0.34160715341568,44.9576055753185
296130,-0.342021465301514,44.9576055753185
296230,-0.34160715341568,45.6678337769088
296340,-0.340364187955856,46.2360183816798
296450,-0.34243580698967,46.1649863657765
296560,-0.342850118875504,45.7388453578248
296670,-0.341399997472763,46.0229325514635
296780,-0.342228621244431,46.1649863657765
296890,-0.34160715341568,46.7331709705475
297000,-0.34243580698967,46.7331709705475
297110,-0.343264430761337,46.3070299625958
297220,-0.34305727481842,46.0229325514635
297330,-0.342642962932587,45.8808787371505
297440,-0.342850118875504,45.3837159307892
297540,-0.343471586704254,44.8155313260182
297650,-0.34243580698967,44.8155313260182
297760,-0.342021465301514,44.8865531244278
297870,-0.34077849984169,45.3126941323795
297980,-0.342642962932587,44.8155313260182
298090,-0.342642962932587,44.8865531244278
298200,-0.341814309358597,44.8865531244278
298310,-0.341399997472763,45.1706403180665
298420,-0.342228621244431,44.8155313260182
298530,-0.340985685586929,45.7388249228375
298640,-0.342850118875504,45.3126839148858
298750,-0.342228621244431,45.2416621164762
298860,-0.341814309358597,45.8098467212472
298960,-0.342850118875504,45.6678031244278
299070,-0.343678742647171,45.0996185196568
299180,-0.342228621244431,44.9575749228375
299290,-0.341399997472763,45.3126941323795
299400,-0.342228621244431,45.3126941323795
299510,-0.34160715341568,45.5967915435118
299620,-0.342021465301514,45.6678133419215
299730,-0.341399997472763,45.8808787371505
299840,-0.342228621244431,45.5967915435118
299950,-0.34305727481842,45.4547479466925
300060,-0.342850118875504,45.0286069387408
300170,-0.342021465301514,45.4547479466925
300280,-0.342021465301514,45.7388453578248
300380,-0.341192841529846,46.0939543498731
300490,-0.342642962932587,45.9519005355601
300600,-0.342021465301514,45.4547377291988
300710,-0.342228621244431,45.3126941323795
300820,-0.342021465301514,45.5967915435118
300930,-0.342021465301514,45.8098671562345
301040,-0.34305727481842,45.5257697451021
301150,-0.342228621244431,45.5257697451021
301260,-0.342642962932587,45.4547479466925
301370,-0.342850118875504,45.1706505355601
301480,-0.34243580698967,45.2416723339698
301590,-0.342642962932587,44.9575749228375
301690,-0.341814309358597,45.0996185196568
301800,-0.342228621244431,45.3126941323795
301910,-0.341814309358597,45.4547377291988
302020,-0.343471586704254,45.0996287371505
302130,-0.34305727481842,44.8155313260182
302240,-0.342021465301514,44.8155313260182
302350,-0.34305727481842,44.8155313260182
302460,-0.341814309358597,45.3837159307892
302570,-0.342228621244431,45.3126941323795
302680,-0.342850118875504,45.0996185196568
302790,-0.343471586704254,44.8155313260182
302900,-0.34305727481842,44.3893903180665
303010,-0.34243580698967,44.1763147053438
303110,-0.342642962932587,43.8922172942115
303220,-0.342642962932587,43.7501634798985
303330,-0.34305727481842,43.8211852783082
303440,-0.341814309358597,43.4660660687662
303550,-0.342642962932587,43.3950442703565
303660,-0.34160715341568,43.5370878671758
303770,-0.342021465301514,43.7501634798985
303880,-0.342642962932587,43.6791416814888
303990,-0.340985685586929,43.6791416814888
304100,-0.34160715341568,43.3950442703565
304210,-0.342850118875504,43.1819686576339
304320,-0.342228621244431,43.0399250608145
304420,-0.342021465301514,43.1819788751275
304530,-0.340985685586929,43.5370878671758
304640,-0.343264430761337,43.2530006735372
304750,-0.34243580698967,42.9689032624049
304860,-0.341814309358597,42.7558378671758
304970,-0.342850118875504,42.3296968592242
305080,-0.34160715341568,42.4717404560435
305190,-0.342642962932587,42.1166212465015
305300,-0.341814309358597,42.1876430449112
305410,-0.342850118875504,41.9035456337789
305520,-0.34243580698967,42.0455892305982
305630,-0.342021465301514,42.6137738353692
305740,-0.342228621244431,42.6848058512725
305840,-0.343264430761337,42.4007186576339
305950,-0.34243580698967,42.1166212465015
306060,-0.342642962932587,41.9745674321885
306170,-0.342021465301514,42.1166212465015
306280,-0.341814309358597,42.2586648433209
306390,-0.342642962932587,41.6194482226465
306500,-0.342850118875504,41.3353508115142
306610,-0.342642962932587,41.6194380051529
306720,-0.342642962932587,41.4063623924302
306830,-0.340985685586929,41.9745469972012
306940,-0.341814309358597,42.5427316019722
307050,-0.341814309358597,42.6137534003819
307150,-0.342228621244431,42.4717098035626
307260,-0.341399997472763,42.6847751987916
307370,-0.341814309358597,42.8978508115142
307480,-0.343471586704254,42.1876226099239
307590,-0.342642962932587,42.2586444083336
307700,-0.34243580698967,42.2586444083336
307810,-0.342850118875504,42.0455687956109
307920,-0.341814309358597,41.9745469972012
308030,-0.342642962932587,41.8324931828882
308140,-0.343678742647171,41.4063623924302
308250,-0.34388592839241,41.4063623924302
308360,-0.34243580698967,41.3353303765269
308470,-0.342021465301514,41.5484059892496
308570,-0.341399997472763,42.1165905940206
308680,-0.341814309358597,42.0455687956109
308790,-0.342021465301514,42.4717098035626
308900,-0.344093084335327,41.7614713844786
309010,-0.34243580698967,41.7614713844786
309120,-0.34305727481842,41.3353303765269
309230,-0.342228621244431,41.4063623924302
309340,-0.341399997472763,41.3353405940206
309450,-0.34243580698967,41.3353405940206
309560,-0.341814309358597,41.7614816019722
309670,-0.342228621244431,41.8325136178755
309780,-0.342642962932587,41.8325136178755
309880,-0.342642962932587,41.9745572146949
309990,-0.34243580698967,41.6904598035626
310100,-0.342850118875504,41.4063623924302
310210,-0.34160715341568,41.4063623924302
310320,-0.34243580698967,40.6961239733462
310430,-0.34243580698967,40.6961239733462
310540,-0.342021465301514,40.9802213844786
310650,-0.343471586704254,40.2699931828882
310760,-0.342642962932587,40.1279393685752
310870,-0.342021465301514,39.9858957717559
310980,-0.341814309358597,40.1989713844786
311090,-0.342228621244431,40.5540905940206
311200,-0.342021465301514,40.9092098035626
311300,-0.342021465301514,41.1222854162852
311410,-0.341814309358597,41.4774046258272
311520,-0.34305727481842,41.6194482226465
311630,-0.343678742647171,41.1933174321885
311740,-0.342021465301514,41.1933174321885
311850,-0.34160715341568,40.9092200210562
311960,-0.340985685586929,41.4774046258272
312070,-0.342021465301514,41.6904802385499
312180,-0.341399997472763,41.8325238353692
312290,-0.342642962932587,41.4063828274175
312400,-0.342021465301514,41.4774046258272
312510,-0.342228621244431,41.0512738353692
312610,-0.342850118875504,41.0512738353692
312720,-0.342228621244431,41.0512738353692
312830,-0.34243580698967,40.8381982226465
312940,-0.342850118875504,40.8381982226465
313050,-0.341814309358597,41.4774046258272
313160,-0.342228621244431,41.4774046258272
313270,-0.341814309358597,41.3353610290079
313380,-0.344093084335327,40.6961444083336
313490,-0.34160715341568,40.6961444083336
313600,-0.341814309358597,40.7671662067432
313710,-0.342021465301514,40.5541008115142
313820,-0.342850118875504,40.3410251987916
313930,-0.341814309358597,40.7671662067432
314030,-0.342850118875504,40.7671662067432
314140,-0.341399997472763,40.9802316019722
314250,-0.341192841529846,41.2643187956109
314360,-0.34243580698967,40.8381777876592
314470,-0.341814309358597,41.1222751987916
314580,-0.342642962932587,40.9091995860689
314690,-0.341192841529846,41.2643085781172
314800,-0.342642962932587,41.0512329653946
314910,-0.341814309358597,41.1222547638042
315020,-0.342021465301514,41.4773739733462
315130,-0.343264430761337,41.1222547638042
315240,-0.34243580698967,41.1932765622139
315340,-0.342642962932587,41.2642983606236
315450,-0.34243580698967,41.2642983606236
315560,-0.342850118875504,41.1932765622139
315670,-0.340985685586929,41.4773637558526
315780,-0.341814309358597,41.6194073526719
315890,-0.34243580698967,41.4063317399493
316000,-0.34243580698967,41.7614407319976
316110,-0.342228621244431,42.0455381431299
316220,-0.342228621244431,41.9745163447203
316330,-0.342642962932587,42.1165599415396
316440,-0.342642962932587,41.8324625304073
316550,-0.342850118875504,41.6193869176846
316660,-0.34243580698967,41.7614305145039
316760,-0.343471586704254,41.7614305145039
316870,-0.34243580698967,41.9744959097329
316980,-0.342228621244431,42.0455279256363
