time,raw,transformed
4650,-0.339742720127106,0
4760,-0.339949876070023,0
4870,-0.339742720127106,0
4980,-0.339949876070023,0
5090,-0.339121222496033,29.9996403524559
5200,-0.341192841529846,59.9997122798941
5310,-0.338914066553116,61.0388591307478
5420,-0.339535564184189,62.4998365222395
5530,-0.339535564184189,63.6361522711794
5640,-0.339949876070023,62.7270706093143
5740,-0.340157032012939,61.1568518582364
5850,-0.340157032012939,59.8483362323398
5960,-0.338914066553116,62.9369257529288
6070,-0.339535564184189,63.6361937893408
6180,-0.339535564184189,64.2422260875629
6290,-0.339742720127106,64.2043373919412
6400,-0.340985685586929,60.962357033891
6510,-0.339121222496033,62.6260776817258
6620,-0.339949876070023,62.2007754696638
6730,-0.339535564184189,62.7270706093143
6840,-0.340571343898773,61.0387968535045
6950,-0.34077849984169,59.0907901979935
7050,-0.340157032012939,58.4979151610118
7160,-0.339742720127106,58.7120023192053
7270,-0.340157032012939,58.1817088003354
7380,-0.34160715341568,62.1299516065181
7490,-0.339535564184189,62.6778230673549
7600,-0.339742720127106,62.9118416580373
7710,-0.33932837843895,63.6602514324088
7820,-0.339949876070023,63.5895165901246
7930,-0.339121222496033,64.5159148471345
8040,-0.339535564184189,64.9036200409451
8150,-0.339742720127106,65.0347328762648
8260,-0.341192841529846,63.5744252882917
8370,-0.340157032012939,63.2964722435194
8470,-0.339949876070023,63.2476315190859
8580,-0.339742720127106,63.409326440367
8690,-0.341814309358597,64.2854477329418
8800,-0.340157032012939,64.1023006204469
8910,-0.33932837843895,64.6426075876522
9020,-0.340364187955856,64.2854708172221
9130,-0.340157032012939,64.11540509171
9240,-0.340571343898773,63.6210303140957
9350,-0.339949876070023,63.6361300953972
9460,-0.340157032012939,63.4918318787369
9570,-0.340157032012939,63.3538074975828
9680,-0.339949876070023,63.3736290548981
9780,-0.340571343898773,62.9462053173847
9890,-0.339121222496033,63.5566356099767
10000,-0.340571343898773,63.1426486908631
10110,-0.340364187955856,62.8849496969247
10220,-0.340985685586929,62.2250629985737
10330,-0.340364187955856,61.9944014325628
10440,-0.339535564184189,62.3013725427508
10550,-0.339535564184189,62.5971810671136
10660,-0.341399997472763,61.7344710604049
10770,-0.33932837843895,62.1551747138815
10880,-0.33932837843895,62.5613713448253
10990,-0.340985685586929,61.9852606675014
11100,-0.340364187955856,61.7855063230441
11200,-0.340571343898773,61.4752076891296
11310,-0.340571343898773,61.1749186885694
11420,-0.340571343898773,60.8841626721523
11530,-0.339949876070023,60.9373073287024
11640,-0.340571343898773,60.659153210635
11750,-0.339535564184189,60.9305424253628
11860,-0.340571343898773,60.6607923840042
11970,-0.339742720127106,60.8191355994903
12080,-0.341399997472763,60.144733934156
12190,-0.338914066553116,60.714094877953
12300,-0.340571343898773,60.4625905790289
12410,-0.339742720127106,60.6148897520572
12510,-0.34077849984169,60.2737896089955
12620,-0.34077849984169,59.9419083887216
12730,-0.339949876070023,59.9998218860884
12840,-0.338914066553116,60.526140019168
12950,-0.339949876070023,60.5749618460785
13060,-0.340364187955856,60.4393854121542
13170,-0.339535564184189,60.6688975130474
13280,-0.34077849984169,60.3569685354934
13400,-0.340364187955856,60.2291047264129
13500,-0.340157032012939,60.1914657705507
13610,-0.340157032012939,60.1547337774798
13720,-0.340571343898773,59.9488118236317
13830,-0.340571343898773,59.7477350922276
13930,-0.339535564184189,59.9666084211871
14040,-0.339742720127106,60.0983500604508
14150,-0.34077849984169,59.8212617564514
14260,-0.339535564184189,60.0319311904546
14370,-0.33932837843895,60.3172939473238
14480,-0.340364187955856,60.2039170907592
14590,-0.340157032012939,60.1706431044006
14700,-0.340157032012939,60.1380846876399
14810,-0.340364187955856,60.0302327228771
14920,-0.340571343898773,59.8494649011043
15030,-0.340985685586929,59.5236459061203
15140,-0.340571343898773,59.3518278004324
15240,-0.340985685586929,59.037736102292
15350,-0.340571343898773,58.8742972492827
15460,-0.340571343898773,58.7141271733325
15570,-0.339535564184189,58.9107283041176
15680,-0.340157032012939,58.8933947947212
15790,-0.340571343898773,58.7377044535526
15900,-0.340364187955856,58.6536880645772
16010,-0.340157032012939,58.639297800586
16120,-0.340364187955856,58.557794991147
16230,-0.338292598724365,59.1453682252202
16340,-0.340364187955856,59.0606888898023
16450,-0.340157032012939,59.0430927563706
16560,-0.338914066553116,59.4154282767672
16660,-0.340157032012939,59.3949533404511
16770,-0.340985685586929,59.1197380551138
16880,-0.340157032012939,59.1022422346763
16990,-0.340985685586929,58.8344229289575
17100,-0.341192841529846,58.5091508255495
17210,-0.339535564184189,58.6820964338002
17320,-0.339742720127106,58.7910369004953
17430,-0.339742720127106,58.8981309186016
17540,-0.339949876070023,58.94340226123
17650,-0.339121222496033,59.2260179895059
17760,-0.340157032012939,59.2088005709613
17870,-0.340364187955856,59.1333185990671
17970,-0.340364187955856,59.0590639763105
18080,-0.339949876070023,59.1012120143358
18190,-0.340571343898773,58.9712606354547
18300,-0.339742720127106,59.0701246862621
18410,-0.339949876070023,59.111190009136
18520,-0.339949876070023,59.1516136863414
18630,-0.340571343898773,58.928403988039
18740,-0.34077849984169,58.7051942897365
18850,-0.34077849984169,58.4261821668585
18960,-0.339121222496033,58.6493998931317
19070,-0.340985685586929,58.1471620160097
19180,-0.340985685586929,58.2029644405853
19290,-0.340571343898773,57.7565370160097
19390,-0.340985685586929,57.3659120160097
19500,-0.340571343898773,57.0868998931317
19610,-0.34077849984169,56.8636901948292
19720,-0.34077849984169,56.6962829211024
19830,-0.34077849984169,56.5288756473756
19940,-0.34077849984169,56.0266457982243
20050,-0.340364187955856,55.8034360999219
20160,-0.341814309358597,55.1896014016195
20270,-0.340157032012939,55.0779965524682
20380,-0.340571343898773,55.1896094295902
20490,-0.34077849984169,54.7431820050146
20600,-0.339742720127106,54.7989844295902
20700,-0.34077849984169,54.4641698821365
20810,-0.340364187955856,54.5199723067121
20920,-0.339949876070023,54.7431820050146
21030,-0.34077849984169,54.5757747312878
21140,-0.341399997472763,54.1293473067121
21250,-0.34077849984169,53.9619400329853
21360,-0.341192841529846,54.0735448821365
21470,-0.341399997472763,53.5713150329853
21580,-0.340571343898773,53.3481053346829
21690,-0.340157032012939,53.1248876084097
21800,-0.340364187955856,53.0132827592585
21910,-0.340571343898773,52.6226577592585
22020,-0.341192841529846,52.1762303346829
22120,-0.340364187955856,52.0088230609561
22230,-0.340571343898773,52.1762383626536
22340,-0.339535564184189,52.3436456363805
22450,-0.340985685586929,52.0646254855317
22560,-0.340985685586929,51.7298029101073
22670,-0.34077849984169,52.0088230609561
22780,-0.340985685586929,51.7856053346829
22890,-0.339949876070023,51.6181900329853
23000,-0.340364187955856,51.6181900329853
23110,-0.34160715341568,51.2275650329853
23220,-0.34077849984169,51.1717626084097
23330,-0.339949876070023,51.1717626084097
23430,-0.340364187955856,51.1159601838341
23540,-0.342021465301514,50.6137303346829
23650,-0.340364187955856,50.5021254855317
23760,-0.339742720127106,50.7253351838341
23870,-0.34077849984169,50.2789077592585
23980,-0.33932837843895,50.6137303346829
24090,-0.340364187955856,50.6137303346829
24200,-0.340985685586929,50.6137303346829
24310,-0.340571343898773,50.5579279101073
24420,-0.341192841529846,50.1115004855317
24530,-0.340364187955856,49.8882907872292
24640,-0.340571343898773,50.1115085135024
24750,-0.34077849984169,49.7208835135024
24850,-0.341814309358597,49.0512383626536
24960,-0.340364187955856,49.2186536643512
25070,-0.342021465301514,48.7722262397756
25180,-0.339742720127106,48.995435938078
25290,-0.34077849984169,48.9396335135024
25400,-0.340571343898773,48.9396335135024
25510,-0.340364187955856,48.8280286643512
25620,-0.34077849984169,48.7722262397756
25730,-0.342228621244431,48.0467866923219
25840,-0.340985685586929,47.9351738152
25950,-0.340571343898773,47.7119641168975
26060,-0.340985685586929,47.8235689660487
26160,-0.339742720127106,47.6003512397756
26270,-0.340364187955856,47.6561536643512
26380,-0.34077849984169,47.3771415414731
26490,-0.340364187955856,47.4887463906244
26600,-0.340157032012939,47.6561536643512
26710,-0.340364187955856,47.5445488152
26820,-0.341399997472763,46.8749036643512
26930,-0.340985685586929,46.5958835135024
27040,-0.340157032012939,46.651685938078
27150,-0.339949876070023,46.5400810889268
27260,-0.339535564184189,46.8748956363805
27370,-0.339949876070023,46.9865004855317
27480,-0.340364187955856,46.9306980609561
27580,-0.339949876070023,46.9865004855317
27690,-0.339949876070023,47.1539077592585
27800,-0.340571343898773,47.1539077592585
27910,-0.339949876070023,47.0423029101073
28020,-0.341192841529846,46.6516779101073
28130,-0.340571343898773,46.7074803346829
28240,-0.340364187955856,46.4842706363805
28350,-0.34077849984169,46.0936456363805
28460,-0.339742720127106,46.2610529101073
28570,-0.340157032012939,46.2610529101073
28680,-0.340364187955856,46.2052504855317
28790,-0.33932837843895,46.4842706363805
28890,-0.34077849984169,46.4284682118048
29000,-0.340985685586929,46.4284682118048
29110,-0.340364187955856,46.4842706363805
29220,-0.339742720127106,46.8190932118048
29330,-0.340571343898773,46.8190932118048
29440,-0.341192841529846,46.6516779101073
29550,-0.340985685586929,46.2610529101073
29660,-0.341399997472763,45.9262303346829
29770,-0.340364187955856,45.9820327592585
29880,-0.339742720127106,46.1494400329853
29990,-0.339535564184189,46.3168473067122
30100,-0.340157032012939,46.3726497312878
30210,-0.34077849984169,45.7030126084097
30310,-0.34077849984169,45.5914077592585
30420,-0.340364187955856,45.5356053346829
30530,-0.340364187955856,45.1449803346829
30640,-0.34077849984169,44.9775730609561
30750,-0.34160715341568,44.8101657872292
30860,-0.340157032012939,44.8101657872292
30970,-0.340571343898773,44.9217786643512
31080,-0.340157032012939,45.2007988152
31190,-0.340571343898773,44.9217866923219
31300,-0.341192841529846,44.5311616923219
31410,-0.34077849984169,44.2521495694439
31520,-0.340571343898773,44.084742295717
31620,-0.34077849984169,43.6383148711414
31730,-0.33932837843895,43.8615325974146
31840,-0.341399997472763,43.5825124465658
31950,-0.339949876070023,43.694117295717
32060,-0.339535564184189,43.8057221448683
32170,-0.340364187955856,43.8615245694439
32280,-0.340571343898773,43.6383148711414
32390,-0.341399997472763,43.2476898711414
32500,-0.341192841529846,42.912867295717
32610,-0.34077849984169,42.8570648711414
32720,-0.341399997472763,42.6896495694439
32830,-0.341399997472763,42.5222342677463
32940,-0.340157032012939,42.2432141168975
33040,-0.339949876070023,42.5222342677463
33150,-0.340571343898773,42.6338471448683
33260,-0.34160715341568,42.3548269940195
33370,-0.340985685586929,42.3548269940195
33480,-0.340571343898773,42.3548269940195
33590,-0.341399997472763,42.1874116923219
33700,-0.341399997472763,42.0199963906244
33810,-0.341192841529846,41.9083835135024
33920,-0.341192841529846,41.7967706363805
34030,-0.340571343898773,41.7409682118048
34140,-0.341399997472763,41.8525730609561
34250,-0.340571343898773,41.7409682118048
34350,-0.342021465301514,41.3503432118048
34460,-0.339742720127106,41.6293553346829
34570,-0.34077849984169,41.3503432118048
34680,-0.340985685586929,41.2945327592585
34790,-0.34077849984169,41.1829279101073
34900,-0.339742720127106,41.2387303346829
35010,-0.340985685586929,41.1829198821365
35120,-0.340985685586929,41.2945247312878
35230,-0.340157032012939,41.4619320050146
35340,-0.341814309358597,41.2945247312878
35450,-0.34077849984169,41.4619400329853
35560,-0.340571343898773,41.4619400329853
35670,-0.341399997472763,41.1271174575609
35770,-0.341192841529846,40.9038997312878
35880,-0.34077849984169,40.8480973067122
35990,-0.340571343898773,41.0155126084097
36100,-0.34077849984169,40.9039077592585
36210,-0.340571343898773,40.9039077592585
36340,-0.340985685586929,40.5132827592585
36430,-0.341399997472763,40.4016779101073
36540,-0.340364187955856,40.5690932118048
36650,-0.340571343898773,40.6248956363805
36760,-0.341192841529846,40.5690932118048
36870,-0.339949876070023,40.5690932118048
36980,-0.339949876070023,40.6806980609561
37090,-0.340364187955856,41.0155206363805
37190,-0.340157032012939,41.1829279101073
37300,-0.339949876070023,41.1829279101073
37410,-0.340985685586929,41.0155126084097
37520,-0.341192841529846,41.2387223067122
37630,-0.340985685586929,41.0713070050146
37740,-0.340985685586929,40.7364844295902
37850,-0.339949876070023,40.9596941278926
37960,-0.341399997472763,40.4016538261951
38070,-0.34077849984169,40.2900489770439
38180,-0.340364187955856,40.4574642787414
38290,-0.340364187955856,40.513266703317
38400,-0.341814309358597,40.3458594295902
38500,-0.341192841529846,40.122641703317
38610,-0.341192841529846,39.9552264016195
38720,-0.340571343898773,40.0110288261951
38830,-0.33932837843895,40.6806739770439
38940,-0.339535564184189,40.9038836753463
39050,-0.347200483083725,39.5087909490731
39160,-0.33932837843895,39.6204038261951
39270,-0.338499754667282,40.2342385244975
39380,-0.339949876070023,40.4016457982243
39490,-0.341192841529846,40.1784280719512
39600,-0.34160715341568,39.955210345678
39710,-0.340571343898773,40.4016377702536
39820,-0.34077849984169,40.4574482228
39920,-0.341814309358597,40.1226256473756
40030,-0.340364187955856,40.2900409490731
40140,-0.342021465301514,39.6762062507707
40250,-0.340364187955856,39.6762062507707
40360,-0.340157032012939,39.8436135244975
40470,-0.339949876070023,39.9552183736487
40580,-0.342228621244431,39.3971860999219
40690,-0.339949876070023,39.5087909490731
40800,-0.340571343898773,39.7320086753463
40910,-0.34077849984169,39.7878191278926
41020,-0.341399997472763,39.4529965524683
41130,-0.340157032012939,39.3971941278926
41230,-0.341192841529846,38.950766703317
41340,-0.340571343898773,38.7833594295902
41450,-0.34160715341568,38.4485368541658
41560,-0.339535564184189,38.560141703317
41670,-0.339949876070023,38.560141703317
41780,-0.340364187955856,38.6159441278926
41890,-0.340985685586929,38.3369239770439
42000,-0.340985685586929,38.3927264016195
42110,-0.34077849984169,38.3369239770439
42220,-0.340985685586929,38.1695086753463
42330,-0.341192841529846,38.0578957982243
42440,-0.340364187955856,37.8904885244975
42550,-0.339742720127106,38.0020933736487
42650,-0.340571343898773,37.9462909490731
42760,-0.339535564184189,37.8904804965268
42870,-0.340364187955856,38.002085345678
42980,-0.340571343898773,38.1136982228
43090,-0.340571343898773,38.0578957982243
43200,-0.341192841529846,37.6672707982243
43310,-0.33932837843895,38.0020933736487
43420,-0.340157032012939,38.2811135244975
43530,-0.339742720127106,38.6159360999219
43640,-0.340985685586929,38.7275409490731
43750,-0.340157032012939,38.7833433736487
43860,-0.341192841529846,38.3927183736487
43960,-0.340364187955856,38.1695086753463
44070,-0.342228621244431,37.6114764016195
44180,-0.340985685586929,37.5556659490731
44290,-0.340985685586929,37.4998554965268
44400,-0.340571343898773,37.4440530719512
44510,-0.340985685586929,37.2766377702536
44620,-0.340157032012939,37.4440450439804
44730,-0.340571343898773,37.7230651948292
44840,-0.34077849984169,37.5556579211024
44950,-0.340571343898773,37.5556579211024
45060,-0.340364187955856,37.4998554965268
45170,-0.34077849984169,37.4440530719512
45280,-0.341192841529846,37.4440530719512
45380,-0.34160715341568,37.220835345678
45490,-0.34077849984169,37.1650329211024
45600,-0.341192841529846,37.0534200439804
45710,-0.341399997472763,36.4953797422829
45820,-0.340157032012939,36.8302023177073
45930,-0.340364187955856,36.718597468556
46040,-0.34077849984169,36.3837829211024
46150,-0.341814309358597,35.9931579211024
46260,-0.340571343898773,35.9931579211024
46370,-0.340364187955856,36.2721780719512
46480,-0.340571343898773,36.4395933736487
46590,-0.340571343898773,36.4953957982243
46690,-0.341399997472763,36.4953957982243
46800,-0.340571343898773,36.7186135244975
46910,-0.341192841529846,36.4395933736487
47020,-0.341192841529846,36.1047707982243
47130,-0.340364187955856,36.1605732228
47240,-0.341192841529846,36.2721780719512
47350,-0.341399997472763,36.1605732228
47460,-0.340571343898773,36.1605732228
47570,-0.340985685586929,36.2721780719512
47680,-0.340571343898773,36.4953957982243
47790,-0.340571343898773,36.6628110999219
47900,-0.34077849984169,36.7744239770439
48010,-0.341399997472763,36.5512062507707
48110,-0.341399997472763,36.5512062507707
48220,-0.340364187955856,36.6070086753463
48330,-0.34160715341568,36.7186135244975
48440,-0.341192841529846,36.3279885244975
48550,-0.340571343898773,36.3837909490731
48660,-0.340157032012939,36.6070086753463
48770,-0.342228621244431,36.2163836753463
48880,-0.340571343898773,35.9931739770439
48990,-0.34077849984169,36.0489844295902
49100,-0.342021465301514,35.7699723067122
49210,-0.34160715341568,35.3793473067122
49320,-0.342021465301514,35.3235448821365
49420,-0.340364187955856,35.4351497312878
49530,-0.340157032012939,35.546754580439
49640,-0.340157032012939,35.8815771558634
49750,-0.34160715341568,35.7699723067122
49860,-0.340985685586929,35.7141618541658
49970,-0.341399997472763,35.4909441278926
50080,-0.34077849984169,35.4909441278926
50190,-0.34077849984169,35.435141703317
50300,-0.341399997472763,35.3235368541658
50410,-0.340571343898773,35.546754580439
50520,-0.340985685586929,35.3793392787414
50630,-0.340364187955856,35.435141703317
50740,-0.339742720127106,35.825766703317
50840,-0.341192841529846,35.4909441278926
50950,-0.340364187955856,35.3793392787414
51060,-0.341399997472763,35.1003191278926
51170,-0.34077849984169,34.9329118541658
51280,-0.34077849984169,34.7097021558634
51390,-0.340364187955856,34.8771174575609
51500,-0.340571343898773,35.0445327592585
51610,-0.341192841529846,34.9887303346829
51720,-0.342228621244431,34.6539157872292
51830,-0.340364187955856,34.542310938078
51940,-0.34077849984169,34.7097262397756
52050,-0.339949876070023,34.932935938078
52150,-0.340571343898773,34.8771335135024
52260,-0.339949876070023,34.9887383626536
52370,-0.341814309358597,34.9887383626536
52480,-0.340364187955856,35.2119560889268
52590,-0.34160715341568,35.1003512397756
52700,-0.34077849984169,35.0445488152
52810,-0.341192841529846,34.542310938078
52920,-0.34077849984169,34.2074963906244
53030,-0.340985685586929,35.8816012397756
53140,-0.34160715341568,35.2677585135024
53250,-0.341192841529846,34.542310938078
53360,-0.341399997472763,34.151685938078
53470,-0.34077849984169,34.2632988152
53570,-0.342021465301514,34.1516939660487
53680,-0.341814309358597,33.8168713906244
53790,-0.339949876070023,34.0400810889268
53900,-0.340571343898773,34.3749036643512
54010,-0.340571343898773,34.3191012397756
54120,-0.34160715341568,34.4307060889268
54240,-0.340364187955856,34.4307060889268
54340,-0.341399997472763,34.0958835135024
54450,-0.341192841529846,33.761060938078
54560,-0.34077849984169,34.151685938078
54670,-0.33932837843895,34.3191012397756
54780,-0.341192841529846,34.151685938078
54880,-0.340571343898773,34.2074883626536
54990,-0.340364187955856,34.4865085135024
55100,-0.340157032012939,34.4865085135024
55210,-0.34160715341568,34.3749036643512
55320,-0.340985685586929,34.2632907872292
55430,-0.341814309358597,34.2074883626536
55540,-0.34077849984169,33.8726738152
55650,-0.341814309358597,33.3704439660487
55760,-0.339742720127106,33.5378512397756
55870,-0.339535564184189,33.9284762397756
55980,-0.339949876070023,34.2074963906244
56090,-0.341399997472763,34.0400810889268
56200,-0.340985685586929,34.0400810889268
56300,-0.341399997472763,33.9842786643512
56410,-0.34243580698967,33.4262383626536
56520,-0.34077849984169,33.1472262397756
56630,-0.340985685586929,33.0356133626536
56740,-0.340571343898773,32.7566012397756
56850,-0.341814309358597,32.3659762397756
56960,-0.341192841529846,32.198560938078
57070,-0.341399997472763,31.9753432118048
57180,-0.341814309358597,31.807935938078
57290,-0.34077849984169,31.417310938078
57400,-0.341192841529846,31.1382907872292
57510,-0.341814309358597,30.5802585135024
57610,-0.340157032012939,30.8034762397756
57720,-0.340364187955856,30.7476738152
57830,-0.341192841529846,30.7476738152
57940,-0.340985685586929,30.5802585135024
58050,-0.34243580698967,30.5244480609561
58160,-0.341192841529846,30.4686456363805
58270,-0.339535564184189,30.8592706363805
58380,-0.341399997472763,30.6360529101073
58490,-0.34160715341568,30.4686456363805
58600,-0.34077849984169,30.3012383626536
58710,-0.34077849984169,30.245435938078
58820,-0.341192841529846,30.1338230609561
58930,-0.341192841529846,29.9664077592585
59030,-0.340985685586929,29.7989924575609
59140,-0.341399997472763,29.6315771558634
59250,-0.339742720127106,30.0222021558634
59360,-0.340985685586929,30.1896094295902
59470,-0.340985685586929,30.1337989770439
59580,-0.341192841529846,30.1337989770439
59690,-0.341192841529846,30.1896014016195
59800,-0.34077849984169,30.0221941278926
59910,-0.341814309358597,29.6315691278926
60020,-0.34077849984169,29.6315691278926
60130,-0.340985685586929,29.8547788261951
60240,-0.341399997472763,29.6315610999219
60340,-0.339742720127106,29.7989683736487
60450,-0.340985685586929,29.6873554965268
60560,-0.339742720127106,29.9105651948292
60670,-0.341399997472763,29.9105651948292
60780,-0.341399997472763,29.687347468556
60890,-0.340571343898773,29.8547627702536
61000,-0.340364187955856,30.0779804965268
61110,-0.341192841529846,29.8547627702536
61220,-0.340571343898773,30.0221780719512
61330,-0.340985685586929,30.1337829211024
61440,-0.341814309358597,29.798960345678
61550,-0.340985685586929,29.798960345678
61660,-0.340571343898773,29.798960345678
61760,-0.340571343898773,29.798960345678
61870,-0.340985685586929,29.7431498931317
61980,-0.339949876070023,30.1337748931317
62090,-0.342228621244431,29.9105651948292
62200,-0.340985685586929,29.7431498931317
62310,-0.340571343898773,30.0221700439804
62420,-0.34077849984169,30.1337829211024
62530,-0.341399997472763,29.9105651948292
62640,-0.341399997472763,29.5757426194048
62750,-0.341399997472763,29.7989523177073
62860,-0.34077849984169,29.7431498931317
62970,-0.340157032012939,29.9105571668585
63070,-0.340364187955856,30.3569845914341
63180,-0.34160715341568,30.3569845914341
63290,-0.341192841529846,30.5801942897365
63400,-0.342021465301514,30.1337668651609
63510,-0.341192841529846,29.8547467143121
63620,-0.340571343898773,29.7431418651609
63730,-0.341399997472763,29.7989442897365
63840,-0.341192841529846,29.7431418651609
63950,-0.340571343898773,29.9663595914341
64060,-0.340571343898773,30.0221620160097
64170,-0.34160715341568,29.7989442897365
64280,-0.341399997472763,29.7989442897365
64390,-0.341192841529846,29.631528988039
64490,-0.340157032012939,29.8547467143121
64600,-0.339535564184189,30.0779564126146
64710,-0.340985685586929,29.7431338371902
64820,-0.341399997472763,29.6873314126146
64930,-0.342228621244431,29.1851015634634
65040,-0.340985685586929,29.2967064126146
65150,-0.341192841529846,29.1850935354926
65260,-0.341399997472763,29.0176782337951
65370,-0.340985685586929,28.8502629320975
65480,-0.341399997472763,28.6270452058243
65590,-0.341399997472763,28.5712427812487
65700,-0.341814309358597,28.6828476303999
65800,-0.340985685586929,28.5154323287024
65910,-0.341192841529846,28.4038194515804
66020,-0.340364187955856,28.2922146024292
66130,-0.341399997472763,28.068996876156
66240,-0.340364187955856,27.9573920270048
66350,-0.34160715341568,28.0131944515804
66460,-0.339742720127106,28.1806017253072
66570,-0.340364187955856,28.5154243007316
66680,-0.340985685586929,28.4596138481853
66790,-0.34160715341568,28.3480089990341
66900,-0.340571343898773,28.4038114236097
67010,-0.339949876070023,28.6828315744585
67120,-0.340985685586929,28.8502388481853
67220,-0.341399997472763,28.7944364236097
67330,-0.340571343898773,29.0176541498829
67440,-0.340157032012939,29.1850614236097
67550,-0.34077849984169,29.5198839990341
67660,-0.342021465301514,29.4640815744585
67770,-0.341814309358597,28.9618517253072
67880,-0.340364187955856,29.0176541498829
67990,-0.340364187955856,29.0734565744585
68100,-0.341192841529846,29.1850614236097
68210,-0.340571343898773,29.1292589990341
68320,-0.341814309358597,29.0176541498829
68430,-0.340985685586929,29.0734565744585
68530,-0.340571343898773,29.1292589990341
68640,-0.341399997472763,28.5712186973365
68750,-0.341192841529846,28.5712186973365
68860,-0.341399997472763,28.3480009710633
68970,-0.341399997472763,28.0689808202146
69080,-0.34077849984169,27.9015735464877
69190,-0.341192841529846,28.0131783956389
69300,-0.341814309358597,27.7899686973365
69410,-0.340364187955856,28.1805936973365
69520,-0.341399997472763,28.0131783956389
69630,-0.341192841529846,28.1805856693658
69740,-0.340985685586929,27.8457630939414
69850,-0.341192841529846,27.3993356693658
69950,-0.341814309358597,26.8971058202146
70060,-0.34077849984169,27.0645211219121
70170,-0.341192841529846,27.0087186973365
70280,-0.340157032012939,27.3435412727609
70390,-0.34077849984169,27.7899767253072
70500,-0.341399997472763,27.6225614236097
70610,-0.340571343898773,27.7341743007316
70720,-0.341399997472763,27.5109565744585
70830,-0.340985685586929,27.7341662727609
70940,-0.342228621244431,27.4551541498829
71050,-0.340985685586929,27.5667589990341
71160,-0.341814309358597,27.5667589990341
71260,-0.342228621244431,27.1761339990341
71370,-0.34160715341568,27.0645291498829
71480,-0.341192841529846,27.2319364236097
71590,-0.341192841529846,26.9529162727609
71700,-0.34160715341568,26.6180936973365
71810,-0.341399997472763,26.5622912727609
71920,-0.340571343898773,26.6739041498829
72030,-0.34160715341568,26.897121876156
72140,-0.340571343898773,27.0645371778536
72250,-0.340985685586929,26.6739121778536
72360,-0.340157032012939,27.008734753278
72470,-0.340985685586929,27.1761420270048
72580,-0.340571343898773,27.2319444515804
72680,-0.340985685586929,27.1761339990341
72790,-0.34160715341568,27.0645291498829
72900,-0.341814309358597,26.897121876156
73010,-0.341192841529846,26.8413194515804
73120,-0.34243580698967,26.5622993007316
73230,-0.341399997472763,26.115871876156
73340,-0.340571343898773,26.227484753278
73450,-0.34077849984169,26.2832952058243
73560,-0.340571343898773,26.4507105075219
73670,-0.34160715341568,26.3391056583707
73780,-0.340985685586929,26.2832952058243
73890,-0.34077849984169,26.5623153566731
73990,-0.339742720127106,26.8413274795512
74100,-0.340985685586929,26.8413274795512
74210,-0.342021465301514,26.6739202058243
74320,-0.34077849984169,26.3949080829463
74430,-0.341814309358597,26.1716983846438
74540,-0.34160715341568,25.6694685354926
74650,-0.342228621244431,25.4462588371902
74760,-0.34160715341568,25.3904564126146
74870,-0.342021465301514,24.9998314126146
74980,-0.341814309358597,24.6092064126146
75090,-0.340985685586929,24.6650088371902
75200,-0.339742720127106,24.8882185354926
75310,-0.340364187955856,25.0556338371902
75410,-0.340571343898773,25.3904564126146
75520,-0.340571343898773,25.5020692897365
75630,-0.340571343898773,25.5020692897365
75740,-0.339949876070023,25.6694765634634
75850,-0.340985685586929,25.6694765634634
75960,-0.340364187955856,25.5578717143121
76070,-0.340985685586929,25.8926862617658
76180,-0.341814309358597,25.6694765634634
76290,-0.341814309358597,25.334653988039
76400,-0.34160715341568,25.1114362617658
76510,-0.341399997472763,25.1114362617658
76620,-0.341399997472763,25.1114362617658
76720,-0.340985685586929,25.223041110917
76830,-0.341192841529846,25.1114282337951
76940,-0.339949876070023,25.1672306583707
77050,-0.34077849984169,25.0556258092195
77160,-0.342021465301514,24.9440209600682
77270,-0.341192841529846,24.9440209600682
77380,-0.340985685586929,25.2230330829463
77490,-0.34160715341568,25.1114282337951
77600,-0.340985685586929,24.9998153566731
77710,-0.340985685586929,25.1114202058243
77820,-0.340571343898773,25.2788355075219
77930,-0.341192841529846,25.1114202058243
78040,-0.341399997472763,24.8882024795512
78140,-0.341399997472763,24.9440049041268
78250,-0.341399997472763,24.9440049041268
78360,-0.340571343898773,25.1114202058243
78470,-0.340571343898773,24.9998153566731
78580,-0.342228621244431,24.2743758092195
78690,-0.341192841529846,24.2185733846438
78800,-0.340985685586929,24.3301782337951
78910,-0.340157032012939,24.8882105075219
79020,-0.34160715341568,24.7208032337951
79130,-0.34243580698967,24.3859806583707
79240,-0.341399997472763,24.3859806583707
79350,-0.340985685586929,24.3859806583707
79450,-0.341192841529846,24.4417830829463
79560,-0.341814309358597,24.3301782337951
79670,-0.342021465301514,24.2743758092195
79780,-0.34243580698967,23.8837508092195
79890,-0.341192841529846,23.8837508092195
80000,-0.34160715341568,23.5489282337951
80110,-0.340985685586929,23.6605330829463
80220,-0.341814309358597,23.2699080829463
80330,-0.340985685586929,23.4373153566731
80440,-0.340571343898773,23.2141056583707
80550,-0.340571343898773,23.1583032337951
80660,-0.34160715341568,22.9908959600682
80770,-0.34077849984169,23.2141136863414
80870,-0.340985685586929,23.1025008092195
80980,-0.340985685586929,22.8234806583707
81090,-0.341399997472763,22.7118758092195
81200,-0.340157032012939,23.0466983846438
81310,-0.341399997472763,22.8234806583707
81420,-0.340571343898773,22.7118758092195
81530,-0.340985685586929,22.6560653566731
81640,-0.34077849984169,22.9908879320975
81750,-0.341814309358597,22.9908879320975
81860,-0.341399997472763,22.7118677812487
81970,-0.340985685586929,22.5444524795512
82080,-0.341814309358597,22.3770452058243
82180,-0.340985685586929,22.2654323287024
82290,-0.341192841529846,22.4328396024292
82400,-0.341814309358597,22.2096299041268
82510,-0.340571343898773,22.2096299041268
82620,-0.340364187955856,22.4886500549755
82730,-0.340364187955856,22.7118677812487
82840,-0.341399997472763,22.7118677812487
82950,-0.341192841529846,22.7676702058243
83060,-0.340364187955856,22.8792750549755
83170,-0.340571343898773,23.0466903566731
83280,-0.341192841529846,23.2140976303999
83390,-0.34160715341568,22.8792750549755
83500,-0.341399997472763,22.8792750549755
83600,-0.341192841529846,22.8792750549755
83710,-0.340985685586929,22.8792750549755
83820,-0.340985685586929,22.9350774795512
83930,-0.340571343898773,23.2699000549755
84040,-0.340571343898773,23.3257024795512
84150,-0.342228621244431,23.0466903566731
84260,-0.340985685586929,22.8234726303999
84370,-0.339742720127106,23.102484753278
84480,-0.340571343898773,23.3257024795512
84590,-0.341192841529846,23.1582871778536
84700,-0.340985685586929,23.2698920270048
84810,-0.340364187955856,23.4373073287024
84910,-0.340985685586929,23.772121876156
85020,-0.34077849984169,23.8279323287024
85130,-0.340985685586929,24.0511420270048
85240,-0.341192841529846,24.3301541498829
85350,-0.34160715341568,24.3301541498829
85460,-0.340571343898773,24.4975694515804
85570,-0.34160715341568,24.3859646024292
85680,-0.341399997472763,24.4417670270048
85790,-0.341814309358597,24.3301621778536
85900,-0.341192841529846,24.162746876156
86010,-0.341192841529846,24.2743517253072
86120,-0.34160715341568,23.9953315744585
86230,-0.341814309358597,23.772121876156
86330,-0.340364187955856,23.7163194515804
86440,-0.341192841529846,23.6605170270048
86550,-0.342021465301514,23.2698920270048
86660,-0.341814309358597,23.0466823287024
86770,-0.340571343898773,23.3257024795512
86880,-0.341192841529846,23.493109753278
86990,-0.34160715341568,23.3815049041268
87100,-0.34160715341568,23.6047226303999
87210,-0.34243580698967,23.3257024795512
87320,-0.341192841529846,23.1582871778536
87430,-0.340364187955856,0
87540,-0.341399997472763,24.5313084431465
87640,-0.341192841529846,24.8437994518932
87750,-0.340571343898773,25.1563129387732
87860,-0.34160715341568,37.109122119788
87970,-0.341814309358597,44.9772840540096
88080,-0.340157032012939,39.7458566733802
88190,-0.340364187955856,40.5271066733802
88300,-0.34077849984169,40.5271066733802
88410,-0.341399997472763,40.722415661134
88520,-0.342228621244431,52.3433903446936
88630,-0.340571343898773,52.9683925925393
88740,-0.341399997472763,53.0465164686165
88850,-0.340985685586929,53.4371358490023
88960,-0.340571343898773,53.9058903446936
89060,-0.34160715341568,53.6715187164621
89170,-0.341399997472763,53.0465164686165
89280,-0.341399997472763,52.6558858490023
89390,-0.340985685586929,52.4996268576197
89500,-0.340985685586929,52.343367866237
89610,-0.342228621244431,51.7183656183913
89720,-0.342642962932587,58.9193379558587
89830,-0.342228621244431,58.5287223217925
89940,-0.341814309358597,58.0729947161148
90050,-0.340364187955856,58.2683118990817
90160,-0.340364187955856,58.7240395047594
90270,-0.339949876070023,54.7477677336358
90370,-0.341399997472763,54.8078625574061
90480,-0.340985685586929,54.9280522049466
90590,-0.342850118875504,57.7567858831025
90700,-0.340571343898773,57.8683987602244
90810,-0.34077849984169,57.9800116373464
90920,-0.340571343898773,57.8126043636195
91030,-0.340985685586929,57.7567939110732
91140,-0.342021465301514,57.7567939110732
91250,-0.34243580698967,57.4219713356488
91360,-0.340571343898773,57.5335842127708
91470,-0.340571343898773,57.8126043636195
91580,-0.340571343898773,57.9242172407415
91690,-0.34077849984169,57.9800276932879
91790,-0.342021465301514,57.5894026932879
91900,-0.34160715341568,57.4777978441366
92010,-0.340571343898773,57.7010155704098
92120,-0.340364187955856,57.9800357212586
92230,-0.34077849984169,58.1474510229561
92340,-0.342021465301514,57.7568260229561
92450,-0.341814309358597,57.4220034475318
92560,-0.34077849984169,57.8126284475318
92670,-0.341192841529846,57.8126284475318
92780,-0.341814309358597,57.5894187492293
92890,-0.342021465301514,57.0871889000781
93000,-0.341192841529846,57.1987937492293
93100,-0.34160715341568,57.4220114755025
93210,-0.341399997472763,57.4220114755025
93320,-0.34243580698967,57.0313864755025
93430,-0.34077849984169,57.1429993526244
93540,-0.34077849984169,57.4220195034732
93650,-0.342021465301514,57.4220195034732
93760,-0.341814309358597,57.5894348051708
93870,-0.34077849984169,57.7010476822927
93980,-0.340571343898773,57.9800678331415
94090,-0.340985685586929,57.9800678331415
94200,-0.341399997472763,58.0916726822927
94310,-0.341399997472763,57.9800678331415
94420,-0.341814309358597,57.6452452577171
94520,-0.342021465301514,57.2546202577171
94630,-0.340157032012939,57.6452452577171
94740,-0.342850118875504,57.0872049560196
94850,-0.341399997472763,56.9756001068683
94960,-0.341814309358597,56.7523904085659
95070,-0.342228621244431,56.5291807102635
95180,-0.340985685586929,56.3059629839903
95290,-0.341399997472763,56.3059629839903
95400,-0.341192841529846,56.1385476822927
95510,-0.340985685586929,56.1385476822927
95620,-0.34160715341568,55.9153299560196
95730,-0.341192841529846,56.0827372297464
95830,-0.340985685586929,56.1943420788976
95940,-0.339742720127106,56.529164654322
96050,-0.341192841529846,56.6965719280488
96160,-0.34077849984169,56.7523823805952
96270,-0.34160715341568,56.640777531444
96380,-0.342021465301514,56.5849751068683
96490,-0.34077849984169,56.5291726822927
96600,-0.341814309358597,56.1385476822927
96710,-0.341399997472763,55.859527531444
96820,-0.341399997472763,55.859527531444
96930,-0.342021465301514,55.6363178331415
97040,-0.342228621244431,55.1340879839903
97150,-0.34077849984169,55.0782855594147
97250,-0.340571343898773,55.2457008611123
97360,-0.340985685586929,55.4131081348391
97470,-0.340364187955856,55.6921282856879
97580,-0.341192841529846,55.6921282856879
97690,-0.340157032012939,55.915346011961
97800,-0.341192841529846,55.8595435873854
97910,-0.341192841529846,55.6921282856879
98020,-0.341192841529846,55.5247129839903
98130,-0.340985685586929,55.859527531444
98240,-0.34077849984169,55.9153379839903
98350,-0.341399997472763,55.4689105594147
98460,-0.341192841529846,55.3014952577171
98560,-0.34077849984169,55.4131081348391
98670,-0.340985685586929,55.4131081348391
98780,-0.340985685586929,55.2456928331415
98890,-0.340571343898773,55.3573057102635
99000,-0.340571343898773,55.4131081348391
99110,-0.34160715341568,55.2457008611123
99220,-0.340571343898773,55.4131161628098
99330,-0.34160715341568,55.4131161628098
99440,-0.34243580698967,54.9108782856879
99550,-0.34160715341568,54.9108782856879
99660,-0.341814309358597,54.7992734365366
99770,-0.34077849984169,55.0782935873854
99880,-0.34160715341568,54.9666887382342
99980,-0.341399997472763,54.9108863136586
100090,-0.340985685586929,55.0782935873854
100200,-0.340985685586929,55.3015032856879
100310,-0.340571343898773,55.2457008611123
100420,-0.34077849984169,55.3573137382342
100530,-0.342228621244431,55.3015113136586
100640,-0.34077849984169,55.5805314645074
100750,-0.339949876070023,55.7479387382342
100860,-0.341192841529846,55.7479387382342
100970,-0.341192841529846,55.8595435873854
101080,-0.340571343898773,56.1385637382342
101190,-0.340364187955856,56.6966040399318
101290,-0.341192841529846,56.6966040399318
101400,-0.341399997472763,56.417583889083
101510,-0.34077849984169,56.5849991907806
101620,-0.341399997472763,56.5291967662049
101730,-0.342021465301514,56.1385717662049
101840,-0.34077849984169,56.3617894924781
101950,-0.340571343898773,56.6966120679025
102060,-0.340985685586929,56.4733943416293
102170,-0.34160715341568,56.1385717662049
102280,-0.34243580698967,55.6921363136586
102390,-0.34160715341568,55.636333889083
102500,-0.341399997472763,55.8595435873854
102610,-0.34160715341568,55.5805234365366
102710,-0.340571343898773,55.8037411628098
102820,-0.341399997472763,55.6921363136586
102930,-0.340985685586929,55.5805234365366
103040,-0.34077849984169,55.8037411628098
103150,-0.340571343898773,56.026958889083
103260,-0.341399997472763,56.026958889083
103370,-0.340571343898773,56.1385717662049
103480,-0.34077849984169,56.1943822187513
103590,-0.341399997472763,56.4175919170537
103700,-0.342228621244431,56.5292047941757
103810,-0.341192841529846,56.8082169170537
103920,-0.341399997472763,56.9198217662049
104020,-0.342228621244431,56.4175919170537
104130,-0.340985685586929,56.2501766153562
104240,-0.342021465301514,55.6921443416293
104350,-0.341192841529846,55.7479467662049
104460,-0.340985685586929,55.7479467662049
104570,-0.341192841529846,56.1943741907806
104680,-0.340985685586929,56.0827613136586
104790,-0.340985685586929,56.0269508611123
104900,-0.342228621244431,55.5805234365366
105010,-0.341399997472763,55.4689185873854
105120,-0.342021465301514,55.4689185873854
105230,-0.341814309358597,55.636333889083
105340,-0.34160715341568,55.3573137382342
105440,-0.341192841529846,55.1898984365366
105550,-0.341814309358597,54.8550758611123
105660,-0.342850118875504,54.2970355594147
105770,-0.341192841529846,54.5202452577171
105880,-0.34077849984169,54.7434629839903
105990,-0.341192841529846,54.5760476822927
106100,-0.342228621244431,54.0738178331415
106210,-0.341814309358597,53.7947976822927
106320,-0.34077849984169,54.1296202577171
106430,-0.34160715341568,54.1854226822927
106540,-0.340985685586929,54.1296122297464
106650,-0.341399997472763,54.0738098051708
106750,-0.341399997472763,54.185414654322
106860,-0.341192841529846,54.4086243526244
106970,-0.34160715341568,54.2970195034732
107080,-0.341192841529846,54.4086243526244
107190,-0.340364187955856,54.6876445034732
107300,-0.342228621244431,54.7434549560196
107410,-0.341814309358597,54.4644348051708
107520,-0.341399997472763,54.2970195034732
107630,-0.341192841529846,54.5202292017757
107740,-0.341399997472763,54.6318340509269
107850,-0.341399997472763,54.4644187492293
107960,-0.341192841529846,54.2970034475318
108070,-0.341814309358597,54.0737937492293
108170,-0.341192841529846,54.1295961738049
108280,-0.341192841529846,54.1853985983805
108390,-0.34160715341568,54.2412010229561
108500,-0.340571343898773,54.6318260229561
108610,-0.34160715341568,54.2412010229561
108720,-0.340985685586929,54.7434308721074
108830,-0.34077849984169,54.9108461738049
108940,-0.341399997472763,55.0224510229561
109050,-0.34160715341568,55.189858296683
109160,-0.34077849984169,55.2456687492293
109270,-0.341814309358597,55.1340639000781
109380,-0.340985685586929,55.1898663246537
109480,-0.341399997472763,55.0782614755025
109590,-0.341814309358597,55.0224590509269
109700,-0.34160715341568,54.9108542017757
109810,-0.341814309358597,54.6876445034732
109920,-0.34160715341568,54.185414654322
110030,-0.339742720127106,54.576039654322
110140,-0.340364187955856,54.6876445034732
110250,-0.341814309358597,54.6318420788976
110360,-0.341192841529846,54.8550517772
110470,-0.340364187955856,54.9666566263513
110580,-0.341192841529846,55.1340639000781
110690,-0.341814309358597,55.0224590509269
110800,-0.342021465301514,54.8550517772
110900,-0.341192841529846,55.0782614755025
111010,-0.34077849984169,55.4688864755025
111120,-0.34160715341568,55.2456687492293
111230,-0.341399997472763,55.0224510229561
111340,-0.341399997472763,54.9108461738049
111450,-0.340985685586929,54.7434308721074
111560,-0.340157032012939,55.0224510229561
111670,-0.340985685586929,54.799233296683
111780,-0.340571343898773,54.9666485983805
111890,-0.341192841529846,54.9666485983805
112000,-0.34160715341568,54.8550437492293
112110,-0.34160715341568,54.6876364755025
112210,-0.34077849984169,54.6876364755025
112320,-0.34160715341568,54.6318340509269
112430,-0.340985685586929,54.6876364755025
112540,-0.340985685586929,54.6318260229561
112650,-0.34160715341568,54.4644187492293
112760,-0.340985685586929,54.4644187492293
112870,-0.341192841529846,54.2970034475318
112980,-0.34160715341568,54.017983296683
113090,-0.341399997472763,54.0737857212586
113200,-0.340985685586929,53.9621728441366
113310,-0.340985685586929,54.1295801178635
113420,-0.34077849984169,54.5760155704098
113530,-0.34077849984169,54.799233296683
113630,-0.34160715341568,54.8550357212586
113740,-0.34160715341568,54.6318179949854
113850,-0.341192841529846,54.7434228441366
113960,-0.341399997472763,54.7434228441366
114070,-0.340985685586929,54.7434228441366
114180,-0.341399997472763,54.6318179949854
114290,-0.34077849984169,54.5760155704098
114400,-0.34160715341568,54.3527978441366
114510,-0.341814309358597,54.4644026932879
114620,-0.341399997472763,54.2969873915903
114730,-0.341399997472763,53.9063623915903
114840,-0.341399997472763,53.8505599670147
114940,-0.34077849984169,53.9621728441366
115050,-0.341399997472763,53.7389551178635
115160,-0.340571343898773,53.6831526932879
115270,-0.342021465301514,53.4599429949854
115380,-0.342021465301514,53.2925357212586
115490,-0.341192841529846,53.1809228441366
115600,-0.341399997472763,53.1809228441366
115710,-0.340571343898773,53.5715478441366
115820,-0.340571343898773,53.6273502687122
115930,-0.341399997472763,53.4041325424391
116040,-0.340985685586929,53.4041325424391
116150,-0.341399997472763,53.4599349670147
116260,-0.34160715341568,53.6831526932879
116360,-0.340157032012939,54.0737776932879
116470,-0.341399997472763,54.0737776932879
116580,-0.340364187955856,54.4086002687122
116690,-0.341399997472763,54.1853825424391
116800,-0.34243580698967,53.9063623915903
116910,-0.341399997472763,53.7947575424391
117020,-0.341192841529846,53.6831446653171
117130,-0.341814309358597,53.3483220898927
117240,-0.340985685586929,53.4599269390439
117350,-0.340571343898773,53.4599269390439
117460,-0.34160715341568,53.2367092127708
117570,-0.342021465301514,53.0693019390439
117680,-0.341399997472763,53.2925116373464
117780,-0.340985685586929,53.348314061922
117890,-0.341399997472763,53.348314061922
118000,-0.34077849984169,53.738939061922
118110,-0.34077849984169,53.7947495144683
118220,-0.340985685586929,54.0737616373464
118330,-0.34077849984169,54.1853745144683
118440,-0.340571343898773,54.2969873915903
118550,-0.341399997472763,54.2411849670147
118660,-0.34077849984169,54.296995419561
118770,-0.342021465301514,54.017983296683
118880,-0.341399997472763,54.2411929949854
118990,-0.340985685586929,54.3527978441366
119090,-0.339949876070023,54.9108301178635
119200,-0.341192841529846,55.0782373915903
119310,-0.342228621244431,54.9108301178635
119420,-0.341192841529846,54.9108301178635
119530,-0.34077849984169,55.1898502687122
119640,-0.340985685586929,55.6920801178635
119750,-0.340985685586929,55.7478825424391
119860,-0.340157032012939,55.9152898161659
119970,-0.341814309358597,55.7478825424391
120080,-0.34160715341568,55.9152898161659
120190,-0.341814309358597,55.9152898161659
120300,-0.342642962932587,55.4130519390439
120410,-0.34077849984169,55.6362696653171
120510,-0.34077849984169,55.6920801178635
120620,-0.340571343898773,55.9152978441366
120730,-0.34160715341568,55.859495419561
120840,-0.342228621244431,55.580483296683
120950,-0.341814309358597,55.5246808721074
121060,-0.341192841529846,55.5246808721074
121170,-0.339535564184189,55.7478905704098
121280,-0.339742720127106,56.4175276932879
121390,-0.341814309358597,56.4175276932879
121500,-0.340571343898773,56.640745419561
121610,-0.342228621244431,56.361733296683
121720,-0.340985685586929,56.4733381458342
121820,-0.342228621244431,56.2501284475318
121930,-0.341399997472763,56.1943260229561
122040,-0.341814309358597,56.1943260229561
122150,-0.340571343898773,56.3617413246537
122260,-0.342228621244431,56.0827292017757
122370,-0.34160715341568,56.0827292017757
122480,-0.34160715341568,55.8037090509269
122590,-0.341192841529846,55.9153139000781
122700,-0.341814309358597,55.6921042017757
122810,-0.341814309358597,55.4130840509269
122920,-0.34160715341568,55.3572816263513
123030,-0.341192841529846,55.4688864755025
123140,-0.34160715341568,55.2456687492293
123240,-0.340571343898773,55.5804913246537
123350,-0.339949876070023,55.8595114755025
123460,-0.342228621244431,55.6363017772
123570,-0.34160715341568,55.6921042017757
123680,-0.34077849984169,55.9153219280488
123790,-0.340157032012939,56.3617493526244
123900,-0.341192841529846,56.4733542017757
124010,-0.34077849984169,56.1943420788976
124120,-0.34243580698967,55.6363017772
124230,-0.34160715341568,55.6921042017757
124340,-0.341814309358597,55.5246969280488
124450,-0.341192841529846,55.3014792017757
124550,-0.34077849984169,55.4130920788976
124660,-0.34160715341568,55.4688945034732
124770,-0.342228621244431,55.4130920788976
124880,-0.341399997472763,55.357289654322
124990,-0.341814309358597,55.0782695034732
125100,-0.341399997472763,55.1340719280488
125210,-0.341399997472763,55.1340719280488
125320,-0.341192841529846,55.1898743526244
125430,-0.342228621244431,54.8550598051708
125540,-0.34160715341568,54.4644348051708
125650,-0.341192841529846,54.4086323805952
125760,-0.340571343898773,54.4086323805952
125870,-0.34077849984169,54.5202452577171
125970,-0.34160715341568,54.5202452577171
126080,-0.34160715341568,54.5202452577171
126190,-0.34160715341568,54.297027531444
126300,-0.342021465301514,54.1854226822927
126410,-0.341399997472763,54.0738178331415
126520,-0.340571343898773,54.1854307102635
126630,-0.341814309358597,54.1296282856879
126740,-0.340985685586929,54.1296282856879
126850,-0.34077849984169,54.2412411628098
126960,-0.342228621244431,54.073833889083
127070,-0.341399997472763,54.073833889083
127180,-0.341399997472763,53.9622290399318
127280,-0.341399997472763,53.8506241907806
127390,-0.341399997472763,53.683208889083
127500,-0.34077849984169,53.683208889083
127610,-0.34160715341568,53.683208889083
127720,-0.341399997472763,53.7390113136586
127830,-0.341192841529846,53.7390113136586
127940,-0.341399997472763,53.7390113136586
128050,-0.340985685586929,53.7390113136586
128160,-0.339535564184189,54.2412411628098
128270,-0.340985685586929,54.1854307102635
128380,-0.341399997472763,54.2412331348391
128490,-0.341192841529846,54.4086404085659
128600,-0.34160715341568,54.3528379839903
128700,-0.341192841529846,54.4086404085659
128810,-0.340985685586929,54.5202452577171
128920,-0.340364187955856,54.6318501068683
129030,-0.342228621244431,54.4086404085659
129140,-0.34160715341568,54.1296202577171
129250,-0.342021465301514,54.1296202577171
129360,-0.342021465301514,54.1296202577171
129470,-0.34160715341568,54.0180154085659
129580,-0.34160715341568,53.9622129839903
129690,-0.342228621244431,53.5157855594147
129800,-0.340571343898773,53.5157855594147
129910,-0.34077849984169,53.6832008611123
130010,-0.340985685586929,53.6832008611123
130120,-0.342228621244431,53.4599911628098
130230,-0.341814309358597,53.4041887382342
130340,-0.341814309358597,52.9577613136586
130450,-0.34077849984169,53.1251766153562
130560,-0.341192841529846,52.901958889083
130670,-0.34077849984169,53.0693741907806
130780,-0.341192841529846,53.4041967662049
130890,-0.341192841529846,53.4599991907806
131000,-0.34160715341568,53.3483943416293
131110,-0.340571343898773,53.6832169170537
131220,-0.340571343898773,53.7948297941757
131330,-0.341814309358597,53.4600072187513
131430,-0.34160715341568,53.4600072187513
131540,-0.342228621244431,53.4042047941757
131650,-0.341814309358597,53.2925999450245
131760,-0.34077849984169,53.3484103975708
131870,-0.340364187955856,53.6274305484196
131980,-0.34077849984169,53.6274305484196
132090,-0.34160715341568,53.4042128221464
132200,-0.341814309358597,53.181003123844
132310,-0.34160715341568,52.9577853975708
132420,-0.340157032012939,53.069390246722
132530,-0.341399997472763,53.069390246722
132640,-0.34077849984169,53.069390246722
132740,-0.340364187955856,53.5158176712976
132850,-0.34160715341568,53.460015246722
132960,-0.34077849984169,53.5158256992684
133070,-0.341814309358597,53.0135958501171
133180,-0.340985685586929,53.0693982746928
133290,-0.340364187955856,53.571628123844
133400,-0.341399997472763,53.5158256992684
133510,-0.342021465301514,53.181003123844
133620,-0.341814309358597,52.9577934255415
133730,-0.341399997472763,52.8461885763903
133840,-0.340985685586929,52.6229708501171
133950,-0.341399997472763,52.7345756992684
134060,-0.341399997472763,52.790378123844
134160,-0.341814309358597,52.790378123844
134270,-0.340985685586929,53.2368055484196
134380,-0.342021465301514,52.9019829729952
134490,-0.340571343898773,52.9577853975708
134600,-0.340985685586929,52.8461725204488
134710,-0.340571343898773,53.1251926712976
134820,-0.340571343898773,53.5716200958732
134930,-0.34160715341568,53.6274225204488
135040,-0.34160715341568,53.5158176712976
135150,-0.342021465301514,52.8461805484196
135260,-0.341192841529846,52.4555555484196
135370,-0.342021465301514,52.399753123844
135470,-0.340157032012939,52.5113579729952
135580,-0.340985685586929,52.8461725204488
135690,-0.34160715341568,52.678765246722
135800,-0.341399997472763,52.9019749450245
135910,-0.340571343898773,53.1251926712976
136020,-0.340985685586929,53.3484023696001
136130,-0.34160715341568,53.0693822187513
136240,-0.34243580698967,53.0135717662049
136350,-0.342228621244431,52.8461644924781
136460,-0.34243580698967,52.6229467662049
136570,-0.34077849984169,52.7345596433269
136680,-0.341814309358597,52.7345596433269
136790,-0.340157032012939,53.1809870679025
136890,-0.342021465301514,53.0693822187513
137000,-0.340985685586929,53.1251846433269
137110,-0.34077849984169,53.3484023696001
137220,-0.341192841529846,53.1809870679025
137330,-0.340571343898773,53.0135797941757
137440,-0.34160715341568,53.1809870679025
137550,-0.342228621244431,53.0135797941757
137660,-0.34160715341568,52.7903620679025
137770,-0.340985685586929,52.5671443416293
137880,-0.34160715341568,52.4555394924781
137990,-0.34077849984169,52.4555394924781
138100,-0.341192841529846,52.7903620679025
138200,-0.342021465301514,52.6787572187513
138310,-0.340985685586929,52.9019669170537
138420,-0.341192841529846,52.9019669170537
138530,-0.341192841529846,52.7903540399318
138640,-0.340571343898773,53.0693741907806
138750,-0.340985685586929,53.4041887382342
138860,-0.340364187955856,53.683208889083
138970,-0.34077849984169,53.9622290399318
139080,-0.34160715341568,53.9064266153562
139190,-0.34243580698967,53.6274064645074
139300,-0.340985685586929,53.683208889083
139410,-0.340985685586929,54.0180234365366
139520,-0.340571343898773,54.2970435873854
139620,-0.340985685586929,54.352846011961
139730,-0.341192841529846,54.1854307102635
139840,-0.342021465301514,53.8506081348391
139950,-0.341192841529846,53.9622129839903
140060,-0.341399997472763,54.0180154085659
140170,-0.341192841529846,54.1296202577171
140280,-0.340985685586929,54.4086323805952
140390,-0.34160715341568,54.3528299560196
140500,-0.34243580698967,53.8505920788976
140610,-0.341814309358597,53.8505920788976
140720,-0.342850118875504,53.3483622297464
140830,-0.340157032012939,53.5157695034732
140930,-0.34160715341568,53.6831767772
141040,-0.339949876070023,54.0738017772
141150,-0.34160715341568,54.0179993526244
141260,-0.341814309358597,53.9063945034732
141370,-0.342021465301514,53.7389872297464
141480,-0.341814309358597,53.4599670788976
141590,-0.340985685586929,53.6273743526244
141700,-0.341192841529846,53.6831767772
141810,-0.340571343898773,53.8505920788976
141920,-0.34077849984169,54.0180073805952
142030,-0.341814309358597,53.7947976822927
142140,-0.342021465301514,53.1251605594147
142250,-0.341192841529846,53.0693581348391
142350,-0.341399997472763,53.0693581348391
142460,-0.341192841529846,53.0693581348391
142570,-0.34077849984169,53.2925758611123
142680,-0.340571343898773,53.4599911628098
142790,-0.342021465301514,53.1809790399318
142900,-0.34243580698967,52.6229387382342
143010,-0.340157032012939,53.180971011961
143120,-0.341399997472763,53.2367734365366
143230,-0.342021465301514,53.2367734365366
143340,-0.341192841529846,53.4599831348391
143450,-0.341814309358597,53.4041807102635
143570,-0.341399997472763,53.4599831348391
143660,-0.340985685586929,53.7947976822927
143770,-0.342021465301514,53.4041726822927
143880,-0.34160715341568,53.1809549560196
143990,-0.341192841529846,53.125152531444
144100,-0.341814309358597,53.2367573805952
144210,-0.341814309358597,53.2367573805952
144320,-0.340985685586929,53.4599670788976
144430,-0.341399997472763,53.2925517772
144540,-0.341192841529846,53.2925517772
144650,-0.340985685586929,53.2367413246537
144760,-0.341399997472763,53.1809389000781
144870,-0.341399997472763,53.1251364755025
144980,-0.34077849984169,53.3483542017757
145080,-0.340985685586929,53.2367413246537
145190,-0.341399997472763,53.0135235983805
145300,-0.340985685586929,53.236733296683
145410,-0.340157032012939,53.627358296683
145520,-0.339949876070023,54.2411929949854
145630,-0.342021465301514,54.1853905704098
145740,-0.34243580698967,53.7389551178635
145850,-0.34160715341568,53.4041325424391
145960,-0.340985685586929,53.3483220898927
146070,-0.342021465301514,53.2367172407415
146180,-0.341399997472763,53.3483220898927
146290,-0.341399997472763,53.4041245144683
146390,-0.340571343898773,53.2925196653171
146500,-0.34160715341568,53.2367172407415
146610,-0.342228621244431,52.8460922407415
146720,-0.340985685586929,52.6786769390439
146830,-0.341192841529846,52.7902817881952
146940,-0.34160715341568,52.567064061922
147050,-0.342228621244431,52.4554592127708
147160,-0.34077849984169,52.5112696653171
147270,-0.341399997472763,52.2322495144683
147380,-0.341399997472763,52.2322495144683
147490,-0.341814309358597,52.2880519390439
147600,-0.34160715341568,52.3438543636195
147710,-0.342228621244431,52.1206446653171
147810,-0.341814309358597,51.8974349670147
147920,-0.342021465301514,51.7300276932879
148030,-0.341192841529846,51.7858301178635
148140,-0.342021465301514,51.7300276932879
148250,-0.342228621244431,51.3952131458342
148360,-0.34077849984169,51.7300357212586
148470,-0.342642962932587,51.171995419561
148580,-0.341399997472763,51.0603905704098
148690,-0.341399997472763,50.8371728441366
148800,-0.339949876070023,51.0045801178635
148910,-0.34243580698967,50.7813623915903
149020,-0.34243580698967,50.5581446653171
149120,-0.341399997472763,50.7255519390439
149230,-0.34160715341568,50.6139470898927
149340,-0.340985685586929,50.8929592127708
149450,-0.341399997472763,50.5581366373464
149560,-0.34243580698967,50.1675116373464
149670,-0.34160715341568,50.1675116373464
149780,-0.341192841529846,50.223314061922
149890,-0.341814309358597,49.8884914864976
150000,-0.341399997472763,49.7768866373464
150110,-0.341192841529846,49.8884914864976
150220,-0.34243580698967,49.8884914864976
150330,-0.342021465301514,49.9442939110732
150440,-0.341399997472763,50.223314061922
150540,-0.342228621244431,49.832689061922
150650,-0.342021465301514,49.7768866373464
150760,-0.341814309358597,49.3304592127708
150870,-0.341399997472763,49.4978664864976
150980,-0.341399997472763,49.3862616373464
151090,-0.341399997472763,49.2188463356488
151200,-0.341399997472763,49.1630439110732
151310,-0.342021465301514,48.7724189110732
151420,-0.341399997472763,48.8282213356488
151530,-0.342021465301514,48.8840237602244
151640,-0.341814309358597,48.8282213356488
151750,-0.342021465301514,48.5492092127708
151850,-0.341814309358597,48.4934067881952
151960,-0.341814309358597,48.2143866373464
152070,-0.34160715341568,48.1027817881952
152180,-0.34077849984169,48.4376043636195
152290,-0.341399997472763,48.3259995144683
152400,-0.340157032012939,48.6050196653171
152510,-0.341399997472763,48.5492172407415
152620,-0.340364187955856,48.6050196653171
152730,-0.34160715341568,48.4376123915903
152840,-0.339949876070023,48.5492172407415
152950,-0.342021465301514,48.2143946653171
153060,-0.340571343898773,48.4934148161659
153170,-0.341192841529846,48.8282373915903
153270,-0.341192841529846,48.7724349670147
153380,-0.34243580698967,48.3818099670147
153490,-0.342642962932587,47.8237696653171
153600,-0.34077849984169,47.8795801178635
153710,-0.341399997472763,47.8237776932878
153820,-0.341192841529846,48.0469873915903
153930,-0.34160715341568,47.9353825424391
154040,-0.341192841529846,47.9911849670147
154150,-0.342021465301514,47.7679752687122
154260,-0.34077849984169,47.8237857212586
154370,-0.34077849984169,48.0470034475318
154480,-0.34077849984169,48.4934389000781
154580,-0.34243580698967,48.3260235983805
154690,-0.341192841529846,48.7724510229561
154800,-0.34160715341568,48.3818260229561
154910,-0.341399997472763,48.4376284475318
155020,-0.341814309358597,47.9353985983805
155130,-0.34160715341568,47.9353985983805
155240,-0.34077849984169,48.2144187492293
155350,-0.341192841529846,48.4376284475318
155460,-0.342021465301514,48.3818260229561
155570,-0.342228621244431,48.0470114755025
155680,-0.340364187955856,48.2702292017757
155790,-0.342021465301514,47.8796042017757
155900,-0.340985685586929,47.8237937492293
156000,-0.340985685586929,48.0470034475318
156110,-0.340985685586929,48.3260155704098
156220,-0.341192841529846,48.3260155704098
156330,-0.34160715341568,48.2702131458342
156440,-0.341399997472763,48.2144107212586
156550,-0.340364187955856,48.3260155704098
156660,-0.34305727481842,47.656370419561
156770,-0.341814309358597,47.7121728441366
156880,-0.34160715341568,47.9353905704098
156990,-0.341814309358597,47.4889631458342
157100,-0.340571343898773,47.7121808721074
157210,-0.341192841529846,47.9353905704098
157310,-0.34160715341568,47.8237857212586
157420,-0.341192841529846,47.9911929949854
157530,-0.341399997472763,47.9911929949854
157640,-0.34077849984169,48.0470034475318
157750,-0.340364187955856,48.4934308721074
157860,-0.341399997472763,48.549233296683
157970,-0.340985685586929,48.6050357212586
158080,-0.340571343898773,48.939858296683
158190,-0.341192841529846,49.1072655704098
158300,-0.342228621244431,48.7724510229561
158410,-0.341814309358597,48.6608461738049
158520,-0.342021465301514,48.4376364755025
158630,-0.34077849984169,48.4934469280488
158730,-0.341192841529846,48.5492493526244
158840,-0.34160715341568,48.4934469280488
158950,-0.34243580698967,48.0470114755025
159060,-0.341192841529846,47.9912090509269
159170,-0.34077849984169,48.1586243526244
159280,-0.340985685586929,48.1586243526244
159390,-0.341814309358597,47.7121969280488
159500,-0.340985685586929,47.4331767772
159610,-0.341192841529846,47.6563864755025
159720,-0.341192841529846,47.9912090509269
159830,-0.341814309358597,47.9354066263513
159940,-0.341814309358597,47.7121969280488
160040,-0.341814309358597,47.7679993526244
160150,-0.340985685586929,47.8796042017757
160260,-0.34243580698967,47.6005840509269
160370,-0.341399997472763,47.3773663246537
160480,-0.341814309358597,47.3215639000781
160590,-0.341399997472763,47.5447735983805
160700,-0.341399997472763,47.4331687492293
160810,-0.34077849984169,47.5447816263513
160920,-0.341399997472763,47.6005840509269
161030,-0.341814309358597,47.7121889000781
161140,-0.340985685586929,47.6563784475318
161250,-0.340985685586929,47.767983296683
161360,-0.341399997472763,47.767983296683
161460,-0.34160715341568,47.8237857212586
161570,-0.342021465301514,47.7121808721074
161680,-0.341399997472763,47.9353905704098
161790,-0.342228621244431,47.8237857212586
161900,-0.340985685586929,48.1027978441366
162010,-0.341192841529846,48.1027978441366
162120,-0.34243580698967,47.9911849670147
162230,-0.341399997472763,48.2143946653171
162340,-0.340985685586929,48.1585842127708
162450,-0.341192841529846,48.5492092127708
162560,-0.34160715341568,48.4934067881952
162670,-0.34077849984169,48.6608220898927
162770,-0.342021465301514,48.1027898161659
162880,-0.341399997472763,48.3818099670147
162990,-0.341192841529846,48.7166325424391
163100,-0.34160715341568,48.6608301178635
163210,-0.340985685586929,48.8282373915903
163320,-0.341814309358597,48.6050276932878
163430,-0.342228621244431,48.3818179949854
163540,-0.340571343898773,48.8840558721074
163650,-0.34077849984169,49.1072735983805
163760,-0.339949876070023,49.4420961738049
163870,-0.34160715341568,49.4978985983805
163980,-0.342228621244431,49.2746889000781
164090,-0.34243580698967,48.9398663246537
164190,-0.341192841529846,49.2746889000781
164300,-0.341814309358597,49.3304913246537
164410,-0.34160715341568,49.2746889000781
164520,-0.340364187955856,49.7769187492293
164630,-0.340364187955856,50.2233461738049
164740,-0.34160715341568,50.2791485983805
164850,-0.34160715341568,50.2233461738049
164960,-0.34160715341568,50.1675437492293
165070,-0.34077849984169,50.3349590509269
165180,-0.34077849984169,50.5023743526244
165290,-0.34077849984169,50.8371969280488
165400,-0.34160715341568,50.7813945034732
165500,-0.341192841529846,51.0046042017757
165610,-0.341814309358597,51.0046042017757
165720,-0.341814309358597,51.0604066263513
165830,-0.34243580698967,50.8929913246537
165940,-0.34305727481842,50.5581687492293
166050,-0.340364187955856,50.8929913246537
166160,-0.341192841529846,50.7813784475318
166270,-0.341192841529846,50.8371808721074
166380,-0.342021465301514,50.3349510229561
166490,-0.34077849984169,50.5023663246537
166600,-0.341192841529846,50.2791485983805
166710,-0.341192841529846,50.3907534475318
166820,-0.340985685586929,50.111733296683
166920,-0.341192841529846,50.3349429949854
167030,-0.341192841529846,50.1675276932879
167140,-0.34077849984169,50.2791405704098
167250,-0.341399997472763,50.2233381458342
167360,-0.342021465301514,50.3349510229561
167470,-0.341814309358597,50.5581687492293
167580,-0.341399997472763,50.3907534475318
167690,-0.34243580698967,50.111733296683
167800,-0.341814309358597,49.9443260229561
167910,-0.34243580698967,49.721108296683
168020,-0.34077849984169,49.8327211738049
168130,-0.341192841529846,50.0559308721074
168230,-0.341814309358597,49.7769107212586
168340,-0.34077849984169,49.7769107212586
168450,-0.341192841529846,49.6652978441366
168560,-0.342021465301514,49.7769107212586
168670,-0.341192841529846,49.7769107212586
168780,-0.341399997472763,49.8327131458342
168890,-0.342228621244431,49.6095034475318
169000,-0.341399997472763,49.721108296683
169110,-0.341192841529846,49.8327131458342
169220,-0.34077849984169,49.8327131458342
169330,-0.340985685586929,49.8885155704098
169440,-0.340985685586929,50.1675276932879
169550,-0.340985685586929,50.5023422407415
169650,-0.342850118875504,49.8326970898927
169760,-0.340985685586929,50.1117092127708
169870,-0.341399997472763,50.0001043636195
169980,-0.341814309358597,49.7768946653171
170090,-0.341192841529846,49.7210922407415
170200,-0.341814309358597,49.5536849670147
170310,-0.341814309358597,49.4978825424391
170420,-0.342228621244431,49.2746728441366
170530,-0.341192841529846,49.0514551178635
170640,-0.341192841529846,49.5536849670147
170750,-0.34160715341568,49.6094873915903
170860,-0.340985685586929,49.7768946653171
170960,-0.341814309358597,49.7768946653171
171070,-0.34160715341568,49.4978745144683
171180,-0.34160715341568,49.3862696653171
171290,-0.340571343898773,49.6652898161659
171400,-0.340985685586929,49.7210922407415
171510,-0.340985685586929,49.8326970898927
171620,-0.341814309358597,49.5536769390439
171730,-0.34160715341568,49.2188543636195
171840,-0.34160715341568,49.1630519390439
171950,-0.34243580698967,48.7724269390439
172060,-0.341399997472763,48.5492092127708
172170,-0.341192841529846,48.5492092127708
172280,-0.341814309358597,48.660814061922
172380,-0.340985685586929,48.8840237602244
172490,-0.340364187955856,49.3304511848
172600,-0.342228621244431,48.9398261848
172710,-0.340985685586929,48.9956286093756
172820,-0.341399997472763,49.0514310339513
172930,-0.340985685586929,49.4420560339513
173040,-0.341192841529846,49.4420560339513
173150,-0.341814309358597,49.1630358831025
173260,-0.340985685586929,49.1630358831025
173370,-0.341192841529846,49.3304431568293
173480,-0.342021465301514,49.0514310339513
173590,-0.34077849984169,49.1630439110732
173690,-0.342228621244431,48.8840317881952
173800,-0.341399997472763,48.9956366373464
173910,-0.340985685586929,49.2188463356488
174020,-0.341399997472763,49.3304511848
174130,-0.341814309358597,49.1072414864976
174240,-0.339949876070023,49.7768866373464
174350,-0.341399997472763,49.7768866373464
174460,-0.340985685586929,50.0000963356488
174570,-0.341192841529846,50.0558987602244
174680,-0.341399997472763,50.0558987602244
174790,-0.342021465301514,49.7210761848
174900,-0.342021465301514,49.5536689110732
175010,-0.340985685586929,49.7768786093756
175110,-0.34160715341568,49.6094713356488
175220,-0.341192841529846,49.5536689110732
175330,-0.341399997472763,49.5536689110732
175440,-0.34160715341568,49.5536689110732
175550,-0.341192841529846,49.7768786093756
175660,-0.34160715341568,49.7210761848
175770,-0.34160715341568,49.8884834585269
175880,-0.341192841529846,49.8326810339513
175990,-0.34243580698967,49.4978584585269
176100,-0.340985685586929,49.8884834585269
176210,-0.340571343898773,50.1117011848
176320,-0.34160715341568,49.9442939110732
176420,-0.342228621244431,49.6652817881952
176530,-0.340157032012939,50.0559067881952
176640,-0.341399997472763,49.8884914864976
176750,-0.341399997472763,50.0558987602244
176860,-0.342642962932587,49.7210761848
176970,-0.341814309358597,49.5536689110732
177080,-0.34160715341568,49.5536689110732
177190,-0.342021465301514,49.2746567881952
177300,-0.341399997472763,49.3862616373464
177410,-0.341399997472763,49.6094713356488
177520,-0.340985685586929,49.4978584585269
177630,-0.341192841529846,49.3862455814049
177740,-0.342850118875504,48.6049955814049
177840,-0.342021465301514,48.4933907322537
177950,-0.341192841529846,48.7724028551317
178060,-0.341814309358597,48.9398181568293
178170,-0.341192841529846,48.9398181568293
178280,-0.342021465301514,48.8840157322537
178390,-0.34160715341568,48.8840157322537
178500,-0.341814309358597,48.4933907322537
178610,-0.34160715341568,48.1585681568293
178720,-0.341814309358597,48.1027657322537
178830,-0.341192841529846,48.2143705814049
178940,-0.342021465301514,48.1027657322537
179050,-0.341814309358597,47.8237455814049
179150,-0.341814309358597,47.5447254305561
179260,-0.341192841529846,47.4331125534342
179370,-0.341399997472763,47.4889149780098
179480,-0.341399997472763,47.4331125534342
179590,-0.341192841529846,47.600519827161
179700,-0.341399997472763,47.7121246763122
179810,-0.341192841529846,48.0469472517366
179920,-0.341192841529846,48.5491771008878
180030,-0.342228621244431,48.0469472517366
180140,-0.340985685586929,48.1027496763122
180250,-0.340985685586929,48.1585521008878
180360,-0.341192841529846,48.3817617991903
180470,-0.340364187955856,48.4933666483415
180570,-0.341399997472763,48.4375642237659
180680,-0.340157032012939,48.7165843746147
180790,-0.341192841529846,48.6607819500391
180900,-0.342021465301514,48.4375722517366
181010,-0.34243580698967,48.1027496763122
181120,-0.342228621244431,47.7121246763122
181230,-0.342228621244431,47.4889149780098
181340,-0.341192841529846,47.7121246763122
181450,-0.341399997472763,47.8237295254634
181560,-0.340985685586929,47.9353343746147
181670,-0.342021465301514,48.0469472517366
181780,-0.342021465301514,47.991144827161
181880,-0.34243580698967,47.991144827161
181990,-0.34160715341568,47.7679271008878
182100,-0.342021465301514,47.5447174025854
182210,-0.342021465301514,47.4889149780098
182320,-0.340571343898773,47.5447174025854
182430,-0.341814309358597,47.3773101288586
182540,-0.341399997472763,47.5447174025854
182650,-0.341192841529846,47.5447174025854
182760,-0.34077849984169,47.712132704283
182870,-0.34077849984169,48.102757704283
182980,-0.340571343898773,48.3259754305561
183090,-0.340571343898773,48.4933907322537
183200,-0.341814309358597,48.2143705814049
183300,-0.342642962932587,47.7679431568293
183410,-0.34160715341568,47.6005358831025
183520,-0.34160715341568,47.4331286093756
183630,-0.341192841529846,47.8795560339513
183740,-0.34077849984169,47.9353664864976
183850,-0.340985685586929,48.0469713356488
183960,-0.340985685586929,48.2701810339513
184070,-0.341192841529846,48.2701810339513
184180,-0.342228621244431,48.1585761848
184290,-0.342228621244431,48.0469713356488
184400,-0.34160715341568,48.2143786093756
184510,-0.341399997472763,48.1585761848
184610,-0.340157032012939,48.4375963356488
184720,-0.342228621244431,48.270189061922
184830,-0.34243580698967,47.879564061922
184940,-0.341814309358597,47.879564061922
185050,-0.341192841529846,47.9911689110732
185160,-0.341192841529846,48.1027737602244
185270,-0.341192841529846,47.9353584585269
185380,-0.342021465301514,47.6563463356488
185490,-0.341814309358597,47.4331366373464
185600,-0.34160715341568,47.488939061922
185710,-0.341399997472763,47.5447414864976
185820,-0.341814309358597,47.488939061922
185930,-0.341192841529846,47.8237616373464
186030,-0.34077849984169,47.9911769390439
186140,-0.341399997472763,47.9353745144683
186250,-0.34160715341568,47.9911769390439
186360,-0.341399997472763,47.8795720898927
186470,-0.340364187955856,47.8795720898927
186580,-0.341814309358597,47.9911769390439
186690,-0.342228621244431,47.6563623915903
186800,-0.341814309358597,47.5447575424391
186910,-0.341399997472763,47.4331526932878
187020,-0.34243580698967,47.0983301178635
187130,-0.34077849984169,47.3773502687122
187240,-0.340985685586929,47.3773502687122
187340,-0.342021465301514,47.1541405704098
187450,-0.341399997472763,47.3215478441366
187560,-0.34160715341568,47.0983301178635
187670,-0.342021465301514,47.1541325424391
187780,-0.341192841529846,47.2099349670147
187890,-0.34243580698967,46.8193099670147
188000,-0.342021465301514,46.6519026932878
188110,-0.34160715341568,46.7077051178635
188220,-0.341192841529846,46.3728825424391
188330,-0.341814309358597,46.2612776932878
188440,-0.341814309358597,46.0380679949854
188550,-0.34077849984169,46.1496808721074
188660,-0.34243580698967,45.8706607212586
188760,-0.341192841529846,46.093870419561
188870,-0.342228621244431,46.0380679949854
188980,-0.342642962932587,45.5916405704098
189090,-0.341399997472763,45.6474429949854
189200,-0.340985685586929,45.703245419561
189310,-0.341399997472763,45.703245419561
189420,-0.34160715341568,45.703245419561
189530,-0.342228621244431,45.424233296683
189640,-0.340571343898773,45.7032534475318
189750,-0.341814309358597,45.6474510229561
189860,-0.34243580698967,45.3126284475318
189970,-0.340571343898773,45.8148663246537
190070,-0.341814309358597,45.5916566263513
190180,-0.341399997472763,45.3684389000781
190290,-0.34243580698967,45.1452211738049
190400,-0.341814309358597,45.2568260229561
190510,-0.34160715341568,44.8662010229561
190620,-0.34160715341568,44.8103985983805
190730,-0.340571343898773,45.0336163246537
190840,-0.34160715341568,45.3126364755025
190950,-0.34160715341568,45.3684389000781
191060,-0.34160715341568,45.3684389000781
191170,-0.34160715341568,45.4800437492293
191280,-0.34160715341568,45.4242413246537
191390,-0.342228621244431,45.2010316263513
191490,-0.34077849984169,45.2568420788976
191600,-0.34077849984169,45.3684549560196
191710,-0.342228621244431,45.5358702577171
191820,-0.342021465301514,45.5358702577171
191930,-0.34243580698967,45.2010476822927
192040,-0.340364187955856,45.5916726822927
192150,-0.341814309358597,45.4242654085659
192260,-0.341399997472763,45.5916726822927
192370,-0.342021465301514,45.4800678331415
192480,-0.341814309358597,45.4800678331415
192590,-0.342642962932587,45.2010476822927
192700,-0.343264430761337,44.8104226822927
192800,-0.340985685586929,44.8662251068683
192910,-0.340985685586929,45.1452372297464
193020,-0.34077849984169,45.4242573805952
193130,-0.34160715341568,45.4800598051708
193240,-0.341814309358597,45.312652531444
193350,-0.342228621244431,45.0894428331415
193460,-0.34160715341568,45.0336404085659
193570,-0.340985685586929,45.0894428331415
193680,-0.341399997472763,45.0894428331415
193790,-0.340985685586929,45.1452452577171
193900,-0.341814309358597,44.9778379839903
194010,-0.34160715341568,45.1452452577171
194120,-0.342021465301514,44.8662331348391
194220,-0.342021465301514,44.587221011961
194330,-0.341399997472763,44.5314185873854
194440,-0.340985685586929,44.3640032856879
194550,-0.34077849984169,44.5314185873854
194660,-0.342642962932587,43.8617734365366
194770,-0.341399997472763,43.805971011961
194880,-0.34077849984169,44.1407935873854
194990,-0.342021465301514,44.2524064645074
195100,-0.34160715341568,44.4198137382342
195210,-0.341399997472763,44.6430234365366
195320,-0.341192841529846,44.6430234365366
195430,-0.341399997472763,44.6430234365366
195540,-0.341399997472763,44.5314185873854
195640,-0.34160715341568,44.6430234365366
195750,-0.342228621244431,44.587221011961
195860,-0.34077849984169,45.0336564645074
195970,-0.341399997472763,45.089458889083
196080,-0.342021465301514,45.089458889083
196190,-0.34077849984169,45.4242814645074
196300,-0.342021465301514,45.0336564645074
196410,-0.342021465301514,44.9778540399318
196520,-0.340571343898773,45.2010717662049
196630,-0.340985685586929,45.2568741907806
196740,-0.341192841529846,45.1452613136586
196850,-0.342642962932587,44.6430234365366
196950,-0.340571343898773,44.6430234365366
197060,-0.340985685586929,44.5314105594147
197170,-0.341814309358597,44.5314105594147
197280,-0.340985685586929,44.9778379839903
197390,-0.341814309358597,44.9220355594147
197500,-0.341192841529846,45.0336404085659
197610,-0.340364187955856,45.2568581348391
197720,-0.342228621244431,44.8662331348391
197830,-0.341192841529846,44.8104307102635
197940,-0.341814309358597,44.587221011961
198050,-0.34077849984169,44.698833889083
198160,-0.341814309358597,44.8104387382342
198270,-0.34243580698967,44.7546282856879
198370,-0.341814309358597,44.6988258611123
198480,-0.341399997472763,44.6988258611123
198590,-0.342228621244431,44.1407935873854
198700,-0.342228621244431,44.1407935873854
198810,-0.340985685586929,44.5314185873854
198920,-0.342021465301514,44.4756161628098
199030,-0.342228621244431,44.1966040399318
199140,-0.34160715341568,44.0849991907806
199250,-0.34077849984169,44.1966120679025
199360,-0.340985685586929,44.4756241907806
199470,-0.342021465301514,44.4198217662049
199580,-0.341814309358597,44.3640193416293
199680,-0.340985685586929,44.4756241907806
199790,-0.342021465301514,44.4198217662049
199900,-0.341814309358597,44.2524144924781
200010,-0.342021465301514,43.9175919170537
200120,-0.341814309358597,43.8059870679025
200230,-0.34243580698967,43.5827693416293
200340,-0.341192841529846,43.6385717662049
200450,-0.340985685586929,43.4711564645074
200560,-0.341192841529846,43.6385637382342
200670,-0.341814309358597,43.7501685873854
200780,-0.342021465301514,43.6943661628098
200890,-0.34077849984169,43.8617814645074
201000,-0.340364187955856,44.4198217662049
201100,-0.342228621244431,44.0291967662049
201210,-0.34243580698967,43.6385717662049
201320,-0.34160715341568,43.7501766153562
201430,-0.341399997472763,43.7501766153562
201540,-0.341399997472763,43.8059790399318
201650,-0.340985685586929,44.0849911628098
201760,-0.341192841529846,44.0849911628098
201870,-0.340571343898773,44.5872290399318
201980,-0.341399997472763,44.7546363136586
202090,-0.340571343898773,45.0336564645074
202200,-0.341399997472763,44.9778540399318
202310,-0.34243580698967,44.8104387382342
202410,-0.340985685586929,45.0336484365366
202520,-0.341192841529846,44.9220355594147
202630,-0.341814309358597,45.0894508611123
202740,-0.341399997472763,45.0336484365366
202850,-0.34077849984169,45.4242734365366
202960,-0.34160715341568,45.7032935873854
203070,-0.340985685586929,45.8148984365366
203180,-0.34243580698967,45.4242734365366
203290,-0.34160715341568,45.368471011961
203400,-0.340571343898773,45.6474911628098
203510,-0.341192841529846,45.9265032856879
203620,-0.342642962932587,45.3684629839903
203730,-0.341814309358597,45.3684629839903
203830,-0.34077849984169,45.8148984365366
203940,-0.342228621244431,45.368471011961
204050,-0.341814309358597,45.368471011961
204160,-0.34160715341568,45.3126685873854
204270,-0.340571343898773,45.8149064645074
204380,-0.342642962932587,45.5916887382342
204490,-0.342228621244431,45.4242814645074
204600,-0.341399997472763,45.480083889083
204710,-0.341814309358597,45.1452613136586
204820,-0.342228621244431,44.9778540399318
204930,-0.341814309358597,44.9220516153562
205040,-0.34160715341568,44.9220516153562
205140,-0.340985685586929,45.089458889083
205250,-0.340985685586929,45.2568661628098
205360,-0.342228621244431,45.2568661628098
205470,-0.342642962932587,44.7546282856879
205580,-0.340571343898773,44.8104307102635
205690,-0.339949876070023,45.4242654085659
205800,-0.34160715341568,45.5358702577171
205910,-0.340571343898773,46.0381081348391
206020,-0.341814309358597,45.6474831348391
206130,-0.34243580698967,45.4800678331415
206240,-0.34077849984169,45.6474831348391
206350,-0.341814309358597,45.7032855594147
206460,-0.341192841529846,45.8706928331415
206560,-0.342021465301514,46.0381081348391
206670,-0.340985685586929,46.6519428331415
206780,-0.340571343898773,46.7635557102635
206890,-0.342021465301514,46.4845435873854
207000,-0.34243580698967,46.0381081348391
207110,-0.341192841529846,46.1497129839903
207220,-0.341399997472763,46.2613178331415
207330,-0.341399997472763,46.484527531444
207440,-0.341399997472763,46.5403299560196
207550,-0.341192841529846,46.484527531444
207660,-0.340985685586929,46.5961323805952
207780,-0.341814309358597,46.3729226822927
207870,-0.341192841529846,46.5403299560196
207980,-0.341399997472763,46.5961323805952
208090,-0.341192841529846,46.8193420788976
208200,-0.34160715341568,46.9309469280488
208310,-0.341814309358597,46.8193420788976
208420,-0.342228621244431,46.484527531444
208530,-0.341192841529846,46.372914654322
208640,-0.341814309358597,46.5961323805952
208750,-0.34160715341568,46.5403299560196
208860,-0.341399997472763,46.372914654322
208970,-0.340571343898773,46.763539654322
209080,-0.341192841529846,46.8751445034732
209190,-0.341814309358597,46.763539654322
209290,-0.34077849984169,46.875152531444
209400,-0.341399997472763,46.875152531444
209510,-0.342642962932587,46.5403299560196
209620,-0.34077849984169,46.7635476822927
209730,-0.340985685586929,47.0983622297464
209840,-0.34160715341568,46.8751445034732
209950,-0.341399997472763,46.8751445034732
210060,-0.341814309358597,46.9309469280488
210170,-0.34160715341568,46.7077292017757
210280,-0.340364187955856,47.1541566263513
210390,-0.342021465301514,47.1541566263513
210500,-0.342228621244431,46.7077292017757
210600,-0.341399997472763,46.5961243526244
210710,-0.342021465301514,46.372914654322
210820,-0.34160715341568,46.6519348051708
210930,-0.341192841529846,46.4845195034732
211040,-0.34160715341568,46.3171122297464
211150,-0.341399997472763,46.4287170788976
211260,-0.341399997472763,46.3171122297464
211370,-0.34160715341568,46.372914654322
211480,-0.341399997472763,46.3171122297464
211590,-0.342642962932587,45.7032695034732
211700,-0.341814309358597,45.8148743526244
211810,-0.34160715341568,45.7032695034732
211920,-0.342228621244431,45.591664654322
212020,-0.341399997472763,45.4242493526244
212130,-0.342642962932587,45.2010316263513
212240,-0.341192841529846,45.5358542017757
212350,-0.34160715341568,45.5916566263513
212460,-0.341399997472763,45.5916566263513
212570,-0.341814309358597,45.7032614755025
212680,-0.34077849984169,46.0938864755025
212790,-0.341399997472763,45.9822816263513
212900,-0.342021465301514,45.9822816263513
213010,-0.340985685586929,46.3170961738049
213120,-0.341399997472763,46.3728985983805
213230,-0.341192841529846,46.2612857212586
213330,-0.341192841529846,46.205483296683
213440,-0.34160715341568,46.3170881458342
213550,-0.340985685586929,46.5402978441366
213660,-0.340571343898773,46.6519107212586
213770,-0.34243580698967,46.5402978441366
213880,-0.340985685586929,46.7635075424391
213990,-0.340157032012939,47.2657373915903
214100,-0.342021465301514,47.2099349670147
214210,-0.340985685586929,47.6005599670147
214320,-0.341399997472763,47.5447575424391
214430,-0.341814309358597,47.3215478441366
214540,-0.341399997472763,47.265745419561
214650,-0.342228621244431,47.1541405704098
214750,-0.342021465301514,47.1541405704098
214860,-0.341399997472763,46.9867252687122
214970,-0.340571343898773,46.9309228441366
215080,-0.340985685586929,47.2657373915903
215190,-0.341399997472763,47.5447575424391
215300,-0.343264430761337,47.0983301178635
215410,-0.342021465301514,46.9309228441366
215520,-0.341192841529846,46.9867252687122
215630,-0.34243580698967,46.5961002687122
215740,-0.34243580698967,46.2612776932878
215850,-0.340571343898773,46.2612776932878
215960,-0.34243580698967,45.9822575424391
216060,-0.34077849984169,45.9264551178635
216170,-0.342228621244431,45.703245419561
216280,-0.340985685586929,46.093870419561
216390,-0.342021465301514,45.814858296683
216500,-0.341192841529846,45.814858296683
216610,-0.341192841529846,45.9822655704098
216720,-0.340985685586929,46.093870419561
216830,-0.341192841529846,45.9822575424391
216940,-0.34077849984169,46.2054752687122
217050,-0.343264430761337,45.5916405704098
217160,-0.340571343898773,46.0938784475318
217270,-0.342021465301514,45.9822735983805
217380,-0.340985685586929,45.8706607212586
217480,-0.342021465301514,45.6474510229561
217590,-0.34160715341568,45.9264711738049
217700,-0.341192841529846,46.0938784475318
217810,-0.34077849984169,46.0938784475318
217920,-0.342021465301514,46.1496808721074
218030,-0.341814309358597,46.1496808721074
218140,-0.341814309358597,46.0938784475318
218250,-0.341192841529846,45.9264631458342
218360,-0.342228621244431,46.0380760229561
218470,-0.342021465301514,46.0938784475318
218580,-0.340985685586929,46.205483296683
218690,-0.34243580698967,46.0380679949854
218790,-0.342228621244431,46.0380679949854
218900,-0.341814309358597,46.0380679949854
219010,-0.34077849984169,46.2612857212586
219120,-0.340985685586929,46.2612857212586
219230,-0.340571343898773,46.3728985983805
219340,-0.341399997472763,46.596108296683
219450,-0.342228621244431,46.7077211738049
219560,-0.340364187955856,46.7635235983805
219670,-0.34160715341568,46.3170961738049
219780,-0.342642962932587,46.0380760229561
219890,-0.340985685586929,45.9264631458342
220000,-0.34160715341568,45.9822655704098
220110,-0.341814309358597,46.1496808721074
220210,-0.342228621244431,45.7590558721074
220320,-0.34160715341568,45.814858296683
220430,-0.341399997472763,45.7590558721074
220540,-0.340985685586929,46.0380679949854
220650,-0.340985685586929,46.0380679949854
220760,-0.341192841529846,45.8706526932878
220870,-0.341814309358597,45.9264551178635
220980,-0.340985685586929,46.3170801178635
221090,-0.340571343898773,46.484495419561
221200,-0.342228621244431,46.2612857212586
221310,-0.342021465301514,46.0938784475318
221420,-0.341814309358597,45.9822735983805
221520,-0.341192841529846,45.9822735983805
221630,-0.342642962932587,45.5358461738049
221740,-0.341192841529846,0
221850,-0.341192841529846,0
221960,-0.34077849984169,0
222070,-0.34160715341568,10.1560533177486
222180,-0.341192841529846,10.5466642690164
222290,-0.34243580698967,54.9803598723251
222400,-0.340985685586929,55.5662762992268
222510,-0.34160715341568,55.3709708235929
222620,-0.341399997472763,55.5662762992268
222730,-0.341399997472763,55.6639290370437
222840,-0.340985685586929,55.8592345126776
222940,-0.340985685586929,55.6639149883115
223050,-0.341192841529846,55.6639149883115
223160,-0.341192841529846,55.9568732017623
223270,-0.341192841529846,55.7615536773962
223380,-0.340985685586929,55.95685915303
223490,-0.342021465301514,56.2498314152131
223600,-0.34160715341568,55.8592064152131
223710,-0.340985685586929,55.8592064152131
223820,-0.340985685586929,56.1521646286639
223930,-0.340985685586929,56.3474701042978
224040,-0.341192841529846,56.6404283177486
224150,-0.342228621244431,56.3474701042978
224250,-0.340571343898773,50.0000374634357
224360,-0.34243580698967,49.8264194146513
224470,-0.342228621244431,49.8264194146513
224580,-0.341814309358597,49.6528138536788
224690,-0.342228621244431,49.5660110731926
224800,-0.339742720127106,34.856130346373
224910,-0.342021465301514,34.615751051292
225020,-0.34243580698967,34.3753631107176
225130,-0.34077849984169,34.5556562275217
225240,-0.34077849984169,34.7359493443258
225350,-0.341814309358597,34.6758545205555
225460,-0.342021465301514,34.4955700492447
225570,-0.34160715341568,34.7960528135893
225670,-0.34243580698967,34.6157596967853
225780,-0.341399997472763,34.6758545205555
225890,-0.34077849984169,35.0965269324407
226000,-0.340985685586929,35.2167165799812
226110,-0.340364187955856,35.8777769324407
226220,-0.342228621244431,35.5773028135893
226330,-0.341399997472763,35.6373976373596
226440,-0.342850118875504,43.8543295098161
226550,-0.342228621244431,43.7501648412249
226660,-0.341814309358597,43.4897456769639
226770,-0.342021465301514,43.3334986740771
226880,-0.341814309358597,43.3855810083727
226980,-0.342021465301514,43.1251693368947
227090,-0.342228621244431,42.9168399997123
227200,-0.34077849984169,43.0210121610864
227310,-0.342642962932587,42.6564283282342
227420,-0.34160715341568,42.6564283282342
227530,-0.340364187955856,42.812682823904
227640,-0.34243580698967,42.3439268296777
227750,-0.342021465301514,42.4480989910518
227860,-0.340985685586929,42.4480989910518
227970,-0.341192841529846,42.1876798267908
228080,-0.341399997472763,42.3439268296777
228190,-0.341399997472763,42.2397621610864
228300,-0.341814309358597,42.1355974924952
228400,-0.340985685586929,42.3439268296777
228510,-0.340985685586929,42.4480914982689
228620,-0.342850118875504,42.2918370025991
228730,-0.342021465301514,42.2918370025991
228840,-0.34160715341568,42.2397546683035
228950,-0.340985685586929,42.1355825069293
229060,-0.340985685586929,42.1355825069293
229170,-0.34160715341568,42.0835001726337
229280,-0.341192841529846,42.6043310083727
229390,-0.34305727481842,42.3439118441118
229500,-0.341192841529846,42.3439118441118
229610,-0.340985685586929,42.7084956769639
229710,-0.341814309358597,42.8647501726337
229820,-0.34160715341568,42.6043310083727
229930,-0.342021465301514,42.7085031697469
230040,-0.340571343898773,42.7605855040425
230150,-0.340571343898773,43.1772516711903
230260,-0.341814309358597,42.9689223340079
230370,-0.340571343898773,43.3335061668601
230480,-0.34077849984169,43.4376783282342
230590,-0.34160715341568,43.333513659643
230700,-0.342021465301514,43.073101988165
230810,-0.340364187955856,43.2814388181304
230920,-0.341814309358597,43.0210196538694
231030,-0.341814309358597,43.3856034867216
231130,-0.342228621244431,42.9689373195738
231240,-0.342021465301514,42.9689373195738
231350,-0.342021465301514,42.7085256480958
231460,-0.34243580698967,42.6043534867216
231570,-0.34160715341568,42.6043534867216
231680,-0.340571343898773,42.7606079823914
231790,-0.342021465301514,42.4481064838348
231900,-0.341399997472763,42.6043534867216
232010,-0.342228621244431,42.5001888181304
232120,-0.341399997472763,42.6043534867216
232230,-0.341192841529846,42.6043534867216
232340,-0.342021465301514,42.6564358210172
232440,-0.341192841529846,42.8647651581996
232550,-0.342850118875504,42.3960166567562
232660,-0.341192841529846,42.7085181553128
232770,-0.340985685586929,43.0210121610864
232880,-0.34077849984169,43.2814313253474
232990,-0.340985685586929,43.2293414982689
233100,-0.340985685586929,43.2293414982689
233210,-0.341399997472763,43.0210046683035
233320,-0.34077849984169,43.1772591639733
233430,-0.340985685586929,43.4897531697469
233540,-0.340985685586929,43.3334986740771
233650,-0.341399997472763,43.3855810083727
233760,-0.34160715341568,43.6460001726337
233860,-0.341399997472763,43.5418355040425
233970,-0.340571343898773,43.8022546683035
234080,-0.34160715341568,43.8543370025991
234190,-0.34077849984169,44.2189208354513
234300,-0.34077849984169,44.4272576654167
234410,-0.341192841529846,44.4793399997123
234520,-0.341399997472763,44.3751753311211
234630,-0.342021465301514,44.114763659643
234740,-0.341192841529846,44.114763659643
234850,-0.341814309358597,44.114763659643
234960,-0.341399997472763,44.0105989910518
235070,-0.341399997472763,43.8022621610864
235170,-0.340985685586929,44.1147561668601
235280,-0.341399997472763,44.2710031697469
235390,-0.341399997472763,44.3751678383381
235500,-0.342021465301514,44.1668385011557
235610,-0.341814309358597,44.3751753311211
235720,-0.342228621244431,44.114763659643
235830,-0.34160715341568,44.0105989910518
235940,-0.341399997472763,43.854344495382
236050,-0.339949876070023,44.2710106625299
236160,-0.342850118875504,43.854344495382
236270,-0.341814309358597,44.0105989910518
236380,-0.342021465301514,43.7501873195738
236490,-0.34077849984169,43.9585241495392
236590,-0.340571343898773,44.1668609795045
236700,-0.341814309358597,44.0626963109133
236810,-0.34160715341568,43.9064493080265
236920,-0.340985685586929,43.9064493080265
237030,-0.342850118875504,43.4897831408787
237140,-0.342021465301514,43.2814538036963
237250,-0.341192841529846,43.2814538036963
237360,-0.341399997472763,43.1772891351051
237470,-0.342642962932587,43.0210346394353
237580,-0.34160715341568,43.0210346394353
237690,-0.342021465301514,42.7606229679573
237800,-0.341192841529846,42.7085406336617
237900,-0.342228621244431,42.396046627888
238010,-0.34077849984169,42.5002187892622
238120,-0.34243580698967,42.4481289621836
238230,-0.341399997472763,42.2397921322182
238340,-0.340571343898773,42.7085481264446
238450,-0.340571343898773,43.1252142935924
238560,-0.340985685586929,43.3335436307748
238670,-0.341814309358597,43.4377082993661
238780,-0.342228621244431,42.8127127950358
238890,-0.341399997472763,42.9689597979226
239000,-0.34077849984169,43.3856334578534
239110,-0.341814309358597,43.1252142935924
239220,-0.342228621244431,42.7606304607402
239320,-0.34160715341568,42.8127127950358
239430,-0.342228621244431,42.7606304607402
239540,-0.342228621244431,42.6043834578534
239650,-0.342021465301514,42.7085556192276
239760,-0.342228621244431,42.5002262820451
239870,-0.342021465301514,42.1877247834885
239980,-0.342228621244431,41.8752307777149
240090,-0.342021465301514,41.4585646105671
240200,-0.340985685586929,41.7710586163407
240310,-0.34243580698967,41.5106394520798
240420,-0.341192841529846,41.9273056192276
240530,-0.341399997472763,42.13563495641
240630,-0.340985685586929,42.3439642935924
240740,-0.341399997472763,42.5002112964792
240850,-0.342228621244431,42.396046627888
240960,-0.342021465301514,42.396046627888
241070,-0.340985685586929,42.7085406336617
241180,-0.340364187955856,42.8127053022529
241290,-0.340985685586929,43.2293714694007
241400,-0.34160715341568,43.2293714694007
241510,-0.341814309358597,42.8647876365485
241620,-0.34160715341568,43.0731244665139
241730,-0.34160715341568,43.1772891351051
241840,-0.342021465301514,42.916877463627
241950,-0.340985685586929,42.9689597979226
242050,-0.34077849984169,43.1252142935924
242160,-0.341399997472763,43.1252142935924
242270,-0.341399997472763,43.2293789621836
242380,-0.342021465301514,42.9689672907056
242490,-0.342850118875504,42.5002187892622
242600,-0.342021465301514,42.7085556192276
242710,-0.341814309358597,42.7606379535232
242820,-0.34160715341568,42.7606379535232
242930,-0.341814309358597,42.5523086163407
243040,-0.341814309358597,42.3439792791583
243150,-0.342021465301514,42.2398146105671
243260,-0.342021465301514,42.0314852733847
243360,-0.342228621244431,42.2398221033501
243470,-0.342228621244431,41.979410431872
243580,-0.341399997472763,41.8752457632808
243690,-0.341192841529846,42.0314927661676
243800,-0.34160715341568,42.0314927661676
243910,-0.340571343898773,42.3960765990198
244020,-0.341814309358597,42.0835751004632
244130,-0.342228621244431,41.6669089333154
244240,-0.34160715341568,41.718991267611
244350,-0.342228621244431,41.3023251004632
244460,-0.341399997472763,41.1460706047935
244570,-0.340364187955856,41.4585721033501
244680,-0.341192841529846,41.6669014405325
244780,-0.341399997472763,41.4064822762715
244890,-0.34160715341568,41.4585646105671
245000,-0.342021465301514,41.4064822762715
245110,-0.342021465301514,41.4585646105671
245220,-0.340985685586929,41.7189762820451
245330,-0.340985685586929,41.9793879535232
245440,-0.340571343898773,42.4481439477495
245550,-0.34160715341568,42.4481439477495
245660,-0.341814309358597,42.1356424491929
245770,-0.34160715341568,42.2398071177842
245880,-0.34160715341568,42.1877247834885
245990,-0.342021465301514,42.2398071177842
246090,-0.341192841529846,42.2918894520798
246200,-0.341192841529846,42.2918894520798
246310,-0.341814309358597,42.3439717863754
246420,-0.341814309358597,42.1877247834885
246530,-0.341192841529846,42.6043909506363
246640,-0.342228621244431,42.3439792791583
246750,-0.342021465301514,42.0835676076803
246860,-0.340571343898773,42.1356499419759
246970,-0.342228621244431,41.8231559362022
247080,-0.341192841529846,41.7710736019066
247190,-0.342021465301514,41.6148265990198
247300,-0.34243580698967,41.1981529390891
247410,-0.341192841529846,41.1460706047935
247510,-0.34160715341568,40.9898236019066
247620,-0.339949876070023,41.3544074347588
247730,-0.341192841529846,41.4585721033501
247840,-0.340985685586929,41.5627367719413
247950,-0.339949876070023,41.7189837748281
248060,-0.34160715341568,41.7189837748281
248170,-0.341814309358597,41.4585646105671
248280,-0.341192841529846,41.3543924491929
248390,-0.34077849984169,41.4585646105671
248500,-0.342021465301514,41.3023176076803
248610,-0.341399997472763,41.4585646105671
248720,-0.342021465301514,41.2502352733847
248820,-0.34160715341568,41.3023176076803
248930,-0.341192841529846,41.3543999419759
249040,-0.340985685586929,41.4585646105671
249150,-0.342228621244431,41.1460706047935
249260,-0.341399997472763,41.1460706047935
249370,-0.341814309358597,41.0419059362022
249480,-0.340157032012939,41.5106544376457
249590,-0.341814309358597,41.5106544376457
249700,-0.342850118875504,41.3543999419759
249810,-0.342228621244431,41.1981529390891
249920,-0.341192841529846,41.2502352733847
250030,-0.342021465301514,40.7294044376457
250140,-0.34243580698967,40.8335691062369
250240,-0.34077849984169,41.0939882704979
250350,-0.342850118875504,40.8856514405325
250460,-0.342021465301514,40.5731499419759
250570,-0.341814309358597,40.2606484434193
250680,-0.341399997472763,40.3648131120105
250790,-0.341399997472763,40.4168954463061
250900,-0.341814309358597,40.2085661091237
251010,-0.341814309358597,40.4689852733847
251120,-0.341192841529846,40.6773146105671
251230,-0.342228621244431,40.4169029390891
251340,-0.342021465301514,40.2606559362022
251450,-0.340157032012939,40.8856589333154
251550,-0.341814309358597,40.8335765990198
251660,-0.34160715341568,40.937741267611
251770,-0.34243580698967,40.6252397690544
251880,-0.342642962932587,40.5210676076803
251990,-0.341814309358597,40.2606484434193
252100,-0.341399997472763,40.5210676076803
252210,-0.341814309358597,40.4169029390891
252320,-0.341399997472763,40.2085661091237
252430,-0.342021465301514,39.8439822762715
252540,-0.34160715341568,39.6877352733847
252650,-0.340985685586929,39.8960646105671
252760,-0.342228621244431,39.8960646105671
252870,-0.342021465301514,39.7398176076803
252970,-0.34160715341568,39.5314807777149
253080,-0.340985685586929,39.7398101148973
253190,-0.342228621244431,39.7398101148973
253300,-0.340985685586929,39.8960571177842
253410,-0.342021465301514,39.9481394520798
253520,-0.341814309358597,40.052304120671
253630,-0.342228621244431,40.0002217863754
253740,-0.342228621244431,40.0002217863754
253850,-0.340985685586929,40.2606334578534
253960,-0.341192841529846,40.5210451293314
254070,-0.34160715341568,40.6252097979226
254180,-0.340571343898773,40.7293819592968
254280,-0.340985685586929,41.093965792149
254390,-0.341192841529846,41.093965792149
254500,-0.341192841529846,41.1460481264446
254610,-0.340985685586929,41.1460481264446
254720,-0.341399997472763,41.1460481264446
254830,-0.341399997472763,41.354377463627
254940,-0.341192841529846,41.5627068008095
255050,-0.341192841529846,41.5106244665139
255160,-0.34243580698967,40.9897861379919
255270,-0.341192841529846,40.9377038036963
255380,-0.340985685586929,41.0939508065831
255490,-0.340985685586929,41.3022801437655
255600,-0.341814309358597,41.2501978094699
255700,-0.34160715341568,41.2501978094699
255810,-0.34160715341568,41.3543624780611
255920,-0.34243580698967,40.9897786452089
256030,-0.341814309358597,40.7293594809479
256140,-0.341399997472763,40.7293594809479
256250,-0.341814309358597,40.6251948123567
256360,-0.340157032012939,41.0939433138001
256470,-0.34243580698967,41.1981079823914
256580,-0.340571343898773,41.5626918152436
256690,-0.341192841529846,41.7189388181304
256800,-0.341814309358597,41.6668564838348
256910,-0.340985685586929,41.8751858210172
257010,-0.341814309358597,41.8751858210172
257120,-0.34243580698967,41.771013659643
257230,-0.342021465301514,41.771013659643
257340,-0.341814309358597,41.8751783282342
257450,-0.34077849984169,42.2397621610864
257560,-0.340985685586929,42.3439268296777
257670,-0.341399997472763,42.291844495382
257780,-0.34160715341568,42.291844495382
257890,-0.342021465301514,41.9272606625299
258000,-0.341399997472763,42.0314253311211
258110,-0.341814309358597,42.1355899997123
258220,-0.34160715341568,42.1355899997123
258330,-0.340364187955856,42.6043385011557
258430,-0.34160715341568,42.5522561668601
258540,-0.341192841529846,42.3439193368947
258650,-0.341814309358597,42.1876723340079
258760,-0.342021465301514,42.0314253311211
258870,-0.34160715341568,42.0314253311211
258980,-0.341814309358597,42.0835076654167
259090,-0.342228621244431,42.0314253311211
259200,-0.341814309358597,41.8230959939386
259310,-0.342228621244431,41.510601988165
259420,-0.341814309358597,41.1981004896084
259530,-0.342228621244431,41.0418534867216
259640,-0.34160715341568,41.0939358210172
259740,-0.342228621244431,40.9376888181304
259850,-0.340985685586929,41.0939358210172
259960,-0.341814309358597,41.1460181553128
260070,-0.341814309358597,40.989771152426
260180,-0.341814309358597,40.8335241495392
260290,-0.34243580698967,40.6772696538694
260400,-0.34160715341568,40.729351988165
260510,-0.341192841529846,40.729351988165
260620,-0.34243580698967,40.6772621610864
260730,-0.34077849984169,40.989763659643
260840,-0.342021465301514,40.6251798267908
260950,-0.341192841529846,40.8855914982689
261060,-0.341399997472763,40.8335091639733
261160,-0.340985685586929,41.0939208354513
261270,-0.341399997472763,41.3543399997123
261380,-0.342228621244431,41.0939283282342
261490,-0.341192841529846,41.1980929968255
261600,-0.34160715341568,40.7814268296777
261710,-0.341399997472763,40.729344495382
261820,-0.340571343898773,40.8335166567562
261930,-0.34160715341568,40.4168504896084
262040,-0.341399997472763,40.468932823904
262150,-0.341814309358597,40.468932823904
262260,-0.34243580698967,40.1564313253474
262370,-0.34160715341568,39.948094495382
262470,-0.34160715341568,40.0522591639733
262580,-0.340364187955856,40.3126783282342
262690,-0.340985685586929,40.5730899997123
262800,-0.34160715341568,40.5730899997123
262910,-0.34160715341568,40.4689253311211
263020,-0.341399997472763,40.3647606625299
263130,-0.340985685586929,40.6772546683035
263240,-0.34243580698967,40.4168355040425
263350,-0.340364187955856,40.7814193368947
263460,-0.340985685586929,40.5730825069293
263570,-0.341814309358597,40.5730825069293
263680,-0.342021465301514,40.7814193368947
263790,-0.341399997472763,40.9897486740771
263890,-0.341814309358597,40.8335016711903
264000,-0.34160715341568,40.9376663397815
264110,-0.342228621244431,40.9897561668601
264220,-0.341399997472763,40.8335016711903
264330,-0.341814309358597,41.0939208354513
264440,-0.342850118875504,40.8855840054859
264550,-0.34077849984169,41.1460031697469
264660,-0.341814309358597,41.0418385011557
264770,-0.34243580698967,40.7814193368947
264880,-0.341192841529846,40.9376663397815
264990,-0.342642962932587,40.7293295098161
265100,-0.341399997472763,40.6772471755205
265200,-0.342850118875504,40.5209926798508
265310,-0.340985685586929,40.7814043513288
265420,-0.340985685586929,40.5730675213634
265530,-0.342228621244431,40.4689028527722
265640,-0.340985685586929,40.625149855659
265750,-0.34160715341568,40.8334866856244
265860,-0.341192841529846,41.1980705184766
265970,-0.34160715341568,41.2501528527722
266080,-0.34077849984169,41.406407348442
266190,-0.341192841529846,41.5626543513288
266300,-0.34077849984169,41.7189088469986
266410,-0.34243580698967,41.6147366856244
266520,-0.34160715341568,41.6147366856244
266620,-0.341814309358597,41.406407348442
266730,-0.340985685586929,41.7189013542156
266840,-0.341814309358597,41.7709836885112
266950,-0.34160715341568,41.7709836885112
267060,-0.34160715341568,41.6147366856244
267170,-0.341814309358597,41.7189013542156
267280,-0.341399997472763,41.6147366856244
267390,-0.34243580698967,41.5105645242502
267500,-0.341192841529846,41.6668115271371
267610,-0.341192841529846,41.9272231986151
267720,-0.340571343898773,42.3438893657629
267830,-0.34160715341568,42.1876423628761
267930,-0.341814309358597,42.0313953599893
268040,-0.341814309358597,41.9793130256937
268150,-0.341192841529846,41.8230585300239
268260,-0.342021465301514,41.5626468585458
268370,-0.342021465301514,41.3543175213634
268480,-0.341814309358597,41.1980705184766
268590,-0.340571343898773,41.3022426798508
268700,-0.34077849984169,41.4584971755205
268810,-0.340364187955856,41.7189163397815
268920,-0.342642962932587,41.3543325069293
269030,-0.342642962932587,40.9897486740771
269140,-0.342021465301514,41.0939208354513
269250,-0.342021465301514,40.8855914982689
269350,-0.342642962932587,40.4689253311211
269460,-0.341399997472763,40.3647606625299
269570,-0.34077849984169,40.6251798267908
269680,-0.342642962932587,40.3647606625299
269790,-0.342642962932587,40.1043414982689
269900,-0.340571343898773,40.5730974924952
270010,-0.341192841529846,40.729344495382
270120,-0.341192841529846,40.7814268296777
270230,-0.341399997472763,40.8855914982689
270340,-0.341192841529846,40.6251723340079
270450,-0.341192841529846,40.9376738325645
270560,-0.341399997472763,40.7293370025991
270660,-0.341814309358597,40.5730899997123
270770,-0.34160715341568,40.6251723340079
270880,-0.34077849984169,40.6772621610864
270990,-0.34243580698967,40.5210076654167
271100,-0.342021465301514,40.6251798267908
271210,-0.341399997472763,40.7814268296777
271320,-0.34160715341568,40.8335091639733
271430,-0.34160715341568,40.6251723340079
271540,-0.34243580698967,40.2605885011557
271650,-0.340571343898773,40.4689253311211
271760,-0.34160715341568,40.4689253311211
271870,-0.342228621244431,40.4168429968255
271980,-0.340985685586929,40.5210076654167
272080,-0.34160715341568,40.5730899997123
272190,-0.341814309358597,40.5210076654167
272300,-0.340985685586929,40.3647531697469
272410,-0.340985685586929,40.5210001726337
272520,-0.340364187955856,40.7293370025991
272630,-0.341814309358597,40.7293370025991
272740,-0.342850118875504,40.5210001726337
272850,-0.342228621244431,40.3647531697469
272960,-0.340364187955856,40.7293370025991
273070,-0.34160715341568,40.8855840054859
273180,-0.342021465301514,40.8335016711903
273290,-0.342021465301514,40.8855840054859
273390,-0.340571343898773,41.1980855040425
273500,-0.34160715341568,41.3543325069293
273610,-0.34160715341568,41.3543325069293
273720,-0.341814309358597,41.4584971755205
273830,-0.341814309358597,41.2501678383381
273940,-0.341192841529846,41.4064148412249
274050,-0.341399997472763,41.5105795098161
274160,-0.34243580698967,41.3543250141464
274270,-0.34160715341568,41.5626618441118
274380,-0.341399997472763,41.6147441784074
274490,-0.342021465301514,41.4064148412249
274600,-0.342642962932587,41.3543325069293
274710,-0.341814309358597,41.0939133426683
274810,-0.341399997472763,41.2501603455552
274920,-0.34243580698967,40.9376588469986
275030,-0.341814309358597,40.8334941784074
275140,-0.34160715341568,40.6772471755205
275250,-0.341814309358597,40.5730825069293
275360,-0.342021465301514,40.6251648412249
275470,-0.341399997472763,40.5730825069293
275580,-0.341399997472763,40.6251648412249
275690,-0.341192841529846,40.6772471755205
275800,-0.341192841529846,40.5209926798508
275910,-0.34243580698967,40.3126558498854
276020,-0.341192841529846,40.364738184181
276130,-0.341814309358597,40.364738184181
276230,-0.342850118875504,40.2605735155898
276340,-0.340985685586929,40.4168205184766
276450,-0.341192841529846,40.5209851870678
276560,-0.340571343898773,40.4689028527722
276670,-0.340364187955856,40.625157348442
276780,-0.341399997472763,40.6772396827376
276890,-0.34243580698967,40.4689028527722
277000,-0.341814309358597,40.364738184181
277110,-0.341814309358597,40.1564088469986
277220,-0.34160715341568,40.3647456769639
277330,-0.341192841529846,40.1564088469986
277440,-0.341814309358597,39.9480795098161
277540,-0.340985685586929,40.1564088469986
277650,-0.34077849984169,40.4689103455552
277760,-0.340985685586929,40.5730750141464
277870,-0.34160715341568,40.625157348442
277980,-0.342228621244431,40.4689103455552
278090,-0.341192841529846,40.7293220170332
278200,-0.341192841529846,40.7814043513288
278310,-0.34160715341568,40.8334866856244
278420,-0.340571343898773,41.406407348442
278530,-0.34160715341568,41.1980705184766
278640,-0.340985685586929,41.406399855659
278750,-0.341814309358597,41.5626543513288
278860,-0.342021465301514,41.3543250141464
278960,-0.34160715341568,41.6147441784074
279070,-0.341399997472763,41.6147441784074
279180,-0.341399997472763,41.9793280112596
279290,-0.341814309358597,41.7709986740771
279400,-0.340985685586929,41.7709986740771
279510,-0.341814309358597,41.8751633426683
279620,-0.342228621244431,41.5626693368947
279730,-0.341192841529846,41.6668340054859
279840,-0.343264430761337,41.1460031697469
279950,-0.342642962932587,40.8855840054859
280060,-0.34243580698967,40.4689103455552
280170,-0.340571343898773,40.6251648412249
280270,-0.34160715341568,40.4168280112596
280380,-0.34243580698967,40.4168280112596
280490,-0.341192841529846,40.5209926798508
280600,-0.340985685586929,40.7293220170332
280710,-0.343264430761337,40.1564088469986
280820,-0.342642962932587,39.9480720170332
280930,-0.34160715341568,39.9480720170332
281040,-0.34160715341568,39.9480720170332
281150,-0.342228621244431,39.843907348442
281260,-0.34160715341568,39.7918250141464
281370,-0.341814309358597,39.9480795098161
281480,-0.340985685586929,40.0001618441118
281590,-0.34160715341568,39.8959971755205
281690,-0.34243580698967,39.4272411812942
281800,-0.34243580698967,39.2189043513288
281910,-0.342850118875504,38.9584851870678
282020,-0.34160715341568,39.0105675213634
282130,-0.341399997472763,38.9584851870678
282240,-0.34160715341568,39.062649855659
282350,-0.34243580698967,38.9584776942849
282460,-0.34160715341568,39.0105600285805
282570,-0.34243580698967,38.5418040343541
282680,-0.340571343898773,38.5938863686497
282790,-0.342021465301514,38.1772202015019
282900,-0.342021465301514,38.3334746971717
283000,-0.341399997472763,38.6459761957283
283110,-0.341814309358597,38.6980585300239
283220,-0.342642962932587,38.5418040343541
283330,-0.342228621244431,38.6459761957283
283440,-0.341192841529846,38.6980585300239
283550,-0.341192841529846,38.5938863686497
283660,-0.342021465301514,38.7501408643195
283770,-0.342228621244431,38.8543130256937
283880,-0.341814309358597,38.5418115271371
283990,-0.342228621244431,38.281399855659
284100,-0.341399997472763,38.2293175213634
284210,-0.341814309358597,38.1251528527722
284320,-0.341814309358597,37.9689058498854
284420,-0.34160715341568,37.8647411812942
284530,-0.34160715341568,37.8126588469986
284640,-0.341814309358597,37.8126588469986
284750,-0.34160715341568,37.8126588469986
284860,-0.342021465301514,37.500157348442
284970,-0.341399997472763,37.760576512703
285080,-0.341399997472763,37.9168235155898
285190,-0.341814309358597,37.8126588469986
285300,-0.341399997472763,37.8647411812942
285410,-0.341399997472763,37.9168235155898
285520,-0.341192841529846,38.2293250141464
285630,-0.342021465301514,37.8647411812942
285730,-0.341192841529846,37.9689058498854
285840,-0.341399997472763,38.1772351870678
285950,-0.341192841529846,38.1251528527722
286060,-0.34077849984169,38.3334896827376
286170,-0.341192841529846,38.4897366856244
286280,-0.34305727481842,37.9689058498854
286390,-0.340364187955856,38.1251603455552
286500,-0.340985685586929,37.9689058498854
286610,-0.341814309358597,37.9689058498854
286720,-0.342228621244431,38.1251603455552
286830,-0.34243580698967,38.0730705184766
286940,-0.342021465301514,37.6564043513288
287050,-0.341192841529846,37.76056901992
287150,-0.342228621244431,37.7084866856244
287260,-0.340985685586929,37.9688983571024
287370,-0.340985685586929,37.8647261957283
287480,-0.341814309358597,37.8126438614327
287590,-0.340985685586929,37.9688908643195
287700,-0.339949876070023,38.4376393657629
287810,-0.34160715341568,38.4897217000585
287920,-0.342228621244431,38.2293100285805
288030,-0.341192841529846,38.2813923628761
288140,-0.34160715341568,38.4897291928415
288250,-0.342021465301514,38.3855645242502
288360,-0.34160715341568,38.3334821899546
288460,-0.342021465301514,38.3334821899546
288570,-0.340985685586929,38.7501483571024
288680,-0.342642962932587,38.5418115271371
288790,-0.340985685586929,38.6459761957283
288900,-0.342228621244431,38.6980660228068
289010,-0.340985685586929,38.9063953599893
289120,-0.341814309358597,38.8543130256937
289230,-0.341814309358597,38.8543130256937
289340,-0.34077849984169,39.1668145242502
289450,-0.341814309358597,39.062649855659
289560,-0.341399997472763,39.062649855659
289670,-0.342021465301514,38.8543205184766
289780,-0.341192841529846,38.8543205184766
289880,-0.341814309358597,39.0105750141464
289990,-0.34160715341568,38.9064103455552
290100,-0.34243580698967,38.7501558498854
290210,-0.341814309358597,39.0105750141464
290320,-0.341399997472763,38.9064103455552
290430,-0.34160715341568,38.8022456769639
290540,-0.342021465301514,38.4376618441118
290650,-0.342021465301514,38.0209956769639
290760,-0.34077849984169,38.1772501726337
290870,-0.341192841529846,38.4897516711903
290980,-0.341192841529846,38.6459986740771
291090,-0.34160715341568,38.6980810083727
291190,-0.340985685586929,38.8543280112596
291300,-0.34160715341568,38.7501633426683
291410,-0.340985685586929,38.9584926798508
291520,-0.340985685586929,38.9584926798508
291630,-0.342228621244431,38.5939088469986
291740,-0.341192841529846,38.541826512703
291850,-0.341399997472763,38.5939088469986
291960,-0.341192841529846,38.8543205184766
292070,-0.34160715341568,38.7501558498854
292180,-0.340571343898773,38.9064103455552
292290,-0.342228621244431,38.7501633426683
292400,-0.34160715341568,38.4897441784074
292510,-0.341814309358597,38.4376618441118
292610,-0.342021465301514,38.1772501726337
292720,-0.340985685586929,38.3855795098161
292830,-0.34160715341568,38.4897441784074
292940,-0.341192841529846,38.5939088469986
293050,-0.34160715341568,38.541826512703
293160,-0.34160715341568,38.4897441784074
293270,-0.340985685586929,38.6980735155898
293380,-0.34243580698967,38.3334896827376
293490,-0.341399997472763,38.4376543513288
293600,-0.34160715341568,38.5939013542156
293710,-0.341399997472763,38.54181901992
293820,-0.341399997472763,39.0105675213634
293920,-0.341814309358597,39.2189043513288
294030,-0.34160715341568,39.4272411812942
294140,-0.342021465301514,39.062657348442
294250,-0.34160715341568,39.062657348442
294360,-0.342021465301514,39.1668295098161
294470,-0.342021465301514,38.9585001726337
294580,-0.341814309358597,38.7501708354513
294690,-0.341192841529846,39.2710016711903
294800,-0.342021465301514,39.4272561668601
294910,-0.341192841529846,39.5314208354513
295020,-0.342021465301514,39.4272561668601
295130,-0.341192841529846,39.6876678383381
295240,-0.340985685586929,39.8439148412249
295340,-0.342228621244431,39.7397501726337
295450,-0.34077849984169,39.7918399997123
295560,-0.341399997472763,39.8439223340079
295670,-0.340364187955856,40.3647606625299
295780,-0.341399997472763,40.6251798267908
295890,-0.34077849984169,41.1460181553128
296000,-0.340985685586929,41.3022651581996
296110,-0.340985685586929,41.4064298267908
296220,-0.342021465301514,41.3022651581996
296330,-0.342642962932587,41.250182823904
296440,-0.341814309358597,41.1981004896084
296550,-0.342021465301514,41.3022726509826
296650,-0.340571343898773,41.3022726509826
296760,-0.34160715341568,41.4064373195738
296870,-0.342228621244431,41.3543549852782
296980,-0.34077849984169,41.5106094809479
297090,-0.341814309358597,41.5106094809479
297200,-0.34077849984169,41.9793654751743
297310,-0.341814309358597,42.0835301437655
297420,-0.340571343898773,42.2397846394353
297530,-0.34243580698967,41.9272831408787
297640,-0.34160715341568,42.0314478094699
297750,-0.34077849984169,42.3960316423221
297860,-0.341192841529846,42.5522786452089
297970,-0.34160715341568,42.7085256480958
298070,-0.34160715341568,42.6564433138001
298180,-0.341192841529846,42.812690316687
298290,-0.34160715341568,42.8647726509826
298400,-0.342021465301514,42.7606079823914
298510,-0.34077849984169,42.9689448123567
298620,-0.342228621244431,42.8647801437655
298730,-0.340985685586929,43.0210271466523
298840,-0.341814309358597,43.0731094809479
298950,-0.342642962932587,42.7606079823914
299060,-0.342642962932587,42.4481064838348
299170,-0.34243580698967,42.291851988165
299280,-0.341814309358597,42.1876873195738
299380,-0.34160715341568,42.1356049852782
299490,-0.340571343898773,42.2918594809479
299600,-0.34160715341568,42.3960241495392
299710,-0.342228621244431,42.1356124780611
299820,-0.34160715341568,42.0835301437655
299930,-0.34160715341568,41.9793654751743
300040,-0.341814309358597,41.7189463109133
300150,-0.341399997472763,41.6668639766177
300260,-0.340364187955856,42.3439493080265
300370,-0.341192841529846,42.1356124780611
300480,-0.342850118875504,41.6668639766177
300590,-0.34243580698967,41.5106094809479
300700,-0.341814309358597,41.6147741495392
300800,-0.340985685586929,41.9793579823914
300910,-0.342850118875504,41.771021152426
301020,-0.341192841529846,41.771021152426
301130,-0.342021465301514,41.8231034867216
301240,-0.341192841529846,41.771021152426
301350,-0.341399997472763,41.6668564838348
301460,-0.342021465301514,41.6147741495392
301570,-0.341399997472763,41.5106094809479
301680,-0.342642962932587,40.8335241495392
301790,-0.341814309358597,40.7814418152436
301900,-0.342228621244431,40.7814418152436
302010,-0.341399997472763,40.7293594809479
302110,-0.341192841529846,40.8335241495392
302220,-0.34160715341568,40.9376888181304
302330,-0.342021465301514,40.8335241495392
302440,-0.342228621244431,40.7814418152436
302550,-0.34160715341568,40.6251948123567
302660,-0.341192841529846,40.9897786452089
302770,-0.342642962932587,40.5731124780611
302880,-0.341814309358597,40.6772771466523
302990,-0.34077849984169,40.7293669737309
303100,-0.341399997472763,40.8335316423221
303210,-0.342850118875504,40.5731124780611
303320,-0.34077849984169,40.5731124780611
303430,-0.342228621244431,40.4689478094699
303530,-0.342021465301514,40.3127008065831
303640,-0.341399997472763,40.4689478094699
303750,-0.341814309358597,40.3127008065831
303860,-0.342228621244431,40.2085361379919
303970,-0.341399997472763,40.2606184722875
304080,-0.341192841529846,40.5731199708441
304190,-0.34160715341568,40.6252023051397
304300,-0.341814309358597,40.5210376365485
304410,-0.34077849984169,40.7293744665139
304520,-0.342021465301514,40.7293744665139
304630,-0.340985685586929,40.9897861379919
304740,-0.340985685586929,40.9376963109133
304840,-0.34160715341568,40.8335316423221
304950,-0.34305727481842,40.3647831408787
305060,-0.34243580698967,40.1564463109133
305170,-0.341814309358597,39.9481169737309
305280,-0.34077849984169,40.1564538036963
305390,-0.341814309358597,39.9481244665139
305500,-0.340571343898773,40.052296627888
305610,-0.341399997472763,40.2606259650704
305720,-0.341192841529846,40.2606259650704
305830,-0.34077849984169,40.4168804607402
305940,-0.341814309358597,40.2606334578534
306050,-0.34077849984169,40.4689702878188
306160,-0.34160715341568,40.2085511235578
306260,-0.342021465301514,40.2606334578534
306370,-0.342021465301514,40.1564687892622
306480,-0.34243580698967,40.0002142935924
306590,-0.34160715341568,40.1043789621836
306700,-0.34243580698967,39.7397951293314
306810,-0.34077849984169,39.9481319592968
306920,-0.340571343898773,40.1043864549666
307030,-0.342228621244431,39.9481394520798
307140,-0.341399997472763,40.0002217863754
307250,-0.341814309358597,39.7918924491929
