time,raw,transformed
7210,-0.333735078573227,0
7320,-0.334149390459061,0
7430,-0.333527892827988,0
7540,-0.335185199975967,0
7650,-0.335806667804718,0
7760,-0.333942234516144,0
7870,-0.334356546401978,0
7980,-0.336013823747635,0
8090,-0.335599511861801,0
8200,-0.335185199975967,0
8300,-0.335599511861801,0
8410,-0.335392355918884,0
8520,-0.335599511861801,0
8630,-0.335599511861801,0
8740,-0.335392355918884,0
8850,-0.335392355918884,0
8960,-0.334770858287811,0
9070,-0.336220979690552,0
9180,-0.336013823747635,0
9290,-0.335806667804718,0
9400,-0.336842477321625,0
9510,-0.336635321378708,0
9610,-0.335185199975967,0
9720,-0.335599511861801,0
9830,-0.337049633264542,0
9940,-0.334978014230728,0
10050,-0.336635321378708,0
10160,-0.336220979690552,0
10270,-0.336842477321625,0
10380,-0.337049633264542,0
10490,-0.335806667804718,0
10600,-0.336428135633469,0
10710,-0.335185199975967,0
10820,-0.336428135633469,0
10930,-0.336013823747635,0
11030,-0.337049633264542,0
11140,-0.337256789207459,0
11250,-0.337049633264542,0
11360,-0.334978014230728,0
11470,-0.336635321378708,0
11580,-0.337671101093292,0
11690,-0.336842477321625,0
11800,-0.336635321378708,0
11910,-0.336842477321625,0
12020,-0.337256789207459,0
12130,-0.337256789207459,0
12240,-0.337671101093292,0
12340,-0.338499754667282,0
12450,-0.336428135633469,0
12560,-0.337671101093292,0
12670,-0.337463945150375,0
12780,-0.338914066553116,0
12890,-0.336220979690552,0
13000,-0.336428135633469,0
13110,-0.338085442781448,0
13220,-0.335806667804718,0
13330,-0.336220979690552,0
13440,-0.337671101093292,0
13550,-0.337049633264542,0
13660,-0.338292598724365,0
13760,-0.337463945150375,0
13870,-0.338085442781448,0
13980,-0.338085442781448,0
14090,-0.336220979690552,0
14200,-0.337878257036209,0
14310,-0.338085442781448,0
14420,-0.337256789207459,0
14530,-0.337878257036209,0
14640,-0.337256789207459,0
14750,-0.338292598724365,0
14860,-0.337671101093292,0
14970,-0.338292598724365,0
15070,-0.338499754667282,0
15180,-0.338085442781448,0
15290,-0.337256789207459,0
15400,-0.336220979690552,0
15510,-0.337878257036209,0
15620,-0.337463945150375,0
15730,-0.337463945150375,0
15840,-0.337878257036209,0
15950,-0.337671101093292,0
16060,-0.338499754667282,0
16170,-0.338914066553116,0
16280,-0.339121222496033,0
16390,-0.338499754667282,0
16490,-0.337671101093292,0
16600,-0.338292598724365,0
16710,-0.338292598724365,0
16820,-0.338499754667282,0
16930,-0.338499754667282,0
17040,-0.338914066553116,0
17150,-0.338706910610199,0
17260,-0.338292598724365,0
17370,-0.338085442781448,0
17480,-0.33932837843895,0
17590,-0.338914066553116,0
17700,-0.338499754667282,0
17800,-0.336842477321625,0
17910,-0.338499754667282,0
18020,-0.338914066553116,0
18130,-0.338706910610199,0
18240,-0.337463945150375,0
18350,-0.338706910610199,0
18460,-0.338085442781448,0
18570,-0.338499754667282,0
18680,-0.338085442781448,0
18790,-0.337256789207459,0
18900,-0.338706910610199,0
19010,-0.33932837843895,0
19120,-0.338706910610199,0
19220,-0.339742720127106,0
19330,-0.33932837843895,0
19440,-0.338085442781448,0
19550,-0.338706910610199,0
19660,-0.337671101093292,0
19770,-0.338085442781448,0
19880,-0.338085442781448,0
19990,-0.338085442781448,0
20100,-0.338292598724365,0
20210,-0.338914066553116,0
20320,-0.338706910610199,0
20430,-0.338499754667282,0
20540,-0.339121222496033,0
20640,-0.337256789207459,0
20750,-0.339742720127106,0
20860,-0.339121222496033,0
20970,-0.339742720127106,0
21080,-0.33932837843895,0
21190,-0.338292598724365,0
21300,-0.337671101093292,0
21410,-0.338914066553116,0
21520,-0.338292598724365,0
21630,-0.338914066553116,0
21740,-0.338706910610199,0
21850,-0.338706910610199,0
21950,-0.33932837843895,0
22060,-0.338914066553116,0
22170,-0.339949876070023,0
22280,-0.338914066553116,0
22390,-0.338706910610199,0
22500,-0.338292598724365,0
22610,-0.338706910610199,0
22720,-0.339535564184189,0
22830,-0.340157032012939,0
22940,-0.339742720127106,0
23050,-0.338499754667282,0
23160,-0.339535564184189,0
23270,-0.340157032012939,0
23370,-0.339121222496033,0
23480,-0.33932837843895,0
23590,-0.338914066553116,0
23700,-0.338706910610199,0
23810,-0.340364187955856,0
23920,-0.338914066553116,0
24030,-0.33932837843895,0
24140,-0.33932837843895,0
24250,-0.340157032012939,0
24360,-0.33932837843895,0
24470,-0.339121222496033,0
24580,-0.338706910610199,0
24680,-0.340157032012939,0
24790,-0.338706910610199,0
24900,-0.340364187955856,0
25010,-0.338085442781448,0
25120,-0.338499754667282,0
25230,-0.338914066553116,0
25340,-0.339949876070023,0
25450,-0.339121222496033,0
25560,-0.33932837843895,0
25670,-0.33932837843895,0
25780,-0.339121222496033,0
25890,-0.338499754667282,0
26000,-0.33932837843895,0
26100,-0.33932837843895,0
26210,-0.339742720127106,0
26320,-0.338706910610199,0
26430,-0.338914066553116,0
26540,-0.33932837843895,0
26650,-0.33932837843895,0
26760,-0.340157032012939,0
26870,-0.339949876070023,0
26980,-0.339535564184189,0
27090,-0.33932837843895,0
27200,-0.339121222496033,0
27310,-0.339121222496033,0
27410,-0.339535564184189,0
27520,-0.340571343898773,0
27630,-0.338914066553116,0
27740,-0.339742720127106,0
27850,-0.338706910610199,0
27960,-0.338085442781448,0
28070,-0.339742720127106,0
28180,-0.338914066553116,0
28290,-0.33932837843895,0
28400,-0.339742720127106,0
28510,-0.339949876070023,0
28620,-0.339535564184189,0
28730,-0.339949876070023,0
28830,-0.338706910610199,0
28940,-0.339742720127106,0
29050,-0.339535564184189,0
29160,-0.339949876070023,0
29270,-0.338292598724365,0
29380,-0.340571343898773,0
29490,-0.339949876070023,0
29600,-0.33932837843895,0
29710,-0.338706910610199,0
29820,-0.33932837843895,0
29930,-0.339535564184189,0
30040,-0.340157032012939,0
30140,-0.340985685586929,0
30250,-0.339121222496033,0
30360,-0.339949876070023,0
30470,-0.339121222496033,0
30580,-0.338914066553116,0
30690,-0.339742720127106,0
30800,-0.339535564184189,0
30910,-0.340364187955856,0
31020,-0.340157032012939,0
31130,-0.340364187955856,0
31240,-0.340157032012939,0
31350,-0.33932837843895,0
31460,-0.339121222496033,0
31560,-0.340364187955856,0
31670,-0.338706910610199,0
31780,-0.33932837843895,0
31890,-0.339742720127106,0
32000,-0.338706910610199,0
32110,-0.339742720127106,0
32220,-0.340157032012939,0
32330,-0.340157032012939,0
32440,-0.340571343898773,0
32550,-0.339742720127106,0
32660,-0.338914066553116,0
32770,-0.340571343898773,0
32870,-0.339535564184189,0
32980,-0.339742720127106,0
33090,-0.340157032012939,0
33200,-0.339949876070023,0
33310,-0.33932837843895,0
33420,-0.339742720127106,0
33530,-0.340157032012939,0
33640,-0.339742720127106,0
33750,-0.339742720127106,0
33860,-0.339949876070023,0
33970,-0.33932837843895,0
34080,-0.339742720127106,0
34190,-0.339535564184189,0
34290,-0.341399997472763,0
34400,-0.339949876070023,0
34510,-0.340157032012939,0
34620,-0.338914066553116,0
34730,-0.340364187955856,0
34840,-0.339535564184189,0
34950,-0.340985685586929,0
35060,-0.338499754667282,0
35170,-0.33932837843895,0
35280,-0.339742720127106,0
35390,-0.340364187955856,0
35500,-0.338706910610199,0
35600,-0.339121222496033,0
35710,-0.340571343898773,0
35820,-0.339742720127106,0
35930,-0.339121222496033,0
36040,-0.340571343898773,0
36150,-0.33932837843895,0
36260,-0.340364187955856,0
36370,-0.340571343898773,0
36480,-0.339121222496033,0
36590,-0.34077849984169,0
36700,-0.339742720127106,0
36810,-0.341814309358597,0
36920,-0.339742720127106,0
37020,-0.339535564184189,0
37130,-0.339949876070023,0
37240,-0.339121222496033,0
37350,-0.34077849984169,0
37460,-0.339949876070023,0
37570,-0.338499754667282,0
37680,-0.340364187955856,0
37790,-0.339535564184189,0
37900,-0.339949876070023,0
38010,-0.341399997472763,0
38120,-0.339535564184189,0
38230,-0.340364187955856,0
38330,-0.34077849984169,0
38440,-0.339535564184189,0
38550,-0.338706910610199,0
38660,-0.339535564184189,0
38770,-0.340364187955856,0
38880,-0.341399997472763,0
38990,-0.339949876070023,0
39100,-0.340157032012939,0
39210,-0.339742720127106,0
39320,-0.339121222496033,0
39430,-0.340571343898773,0
39540,-0.33932837843895,0
39650,-0.338706910610199,0
39750,-0.338914066553116,0
39860,-0.340985685586929,0
39970,-0.340157032012939,0
40080,-0.340571343898773,0
40190,-0.339742720127106,0
40300,-0.340157032012939,0
40410,-0.339121222496033,0
40520,-0.341192841529846,0
40630,-0.340571343898773,0
40740,-0.340985685586929,0
40850,-0.339121222496033,0
40960,-0.339535564184189,0
41060,-0.33932837843895,0
41170,-0.339121222496033,0
41280,-0.340985685586929,0
41390,-0.340364187955856,0
41500,-0.339949876070023,0
41610,-0.340985685586929,0
41720,-0.340157032012939,0
41830,-0.339121222496033,0
41940,-0.34077849984169,0
42050,-0.340364187955856,0
42160,-0.338499754667282,0
42270,-0.340364187955856,0
42380,-0.340157032012939,0
42480,-0.339121222496033,0
42590,-0.340571343898773,0
42700,-0.340157032012939,0
42810,-0.340571343898773,0
42920,-0.34077849984169,0
43030,-0.340571343898773,0
43140,-0.340571343898773,0
43250,-0.33932837843895,0
43360,-0.340571343898773,0
43470,-0.339949876070023,0
43580,-0.34077849984169,0
43690,-0.340571343898773,0
43790,-0.339742720127106,0
43900,-0.340364187955856,0
44010,-0.340985685586929,0
44120,-0.339535564184189,0
44230,-0.340571343898773,0
44340,-0.338914066553116,0
44450,-0.340157032012939,0
44560,-0.339949876070023,0
44670,-0.340157032012939,0
44780,-0.340157032012939,0
44890,-0.33932837843895,0
45000,-0.339121222496033,0
45110,-0.339535564184189,0
45210,-0.339121222496033,0
45320,-0.339742720127106,0
45430,-0.340364187955856,0
45540,-0.339535564184189,0
45650,-0.341192841529846,0
45760,-0.340364187955856,0
45870,-0.339949876070023,0
45980,-0.338706910610199,0
46090,-0.340571343898773,0
46200,-0.338499754667282,0
46310,-0.339535564184189,0
46420,-0.340157032012939,0
46520,-0.339742720127106,0
46630,-0.340364187955856,0
46740,-0.339742720127106,0
46850,-0.34077849984169,0
46960,-0.339121222496033,0
47070,-0.339742720127106,0
47180,-0.340157032012939,0
47290,-0.339949876070023,0
47400,-0.33932837843895,0
47510,-0.339949876070023,0
47620,-0.339121222496033,0
47730,-0.339949876070023,0
47840,-0.339742720127106,0
47940,-0.34077849984169,0
48050,-0.340364187955856,0
48160,-0.340157032012939,0
48270,-0.339949876070023,0
48380,-0.34077849984169,0
48490,-0.341814309358597,0
48600,-0.34077849984169,0
48710,-0.340985685586929,0
48820,-0.340157032012939,0
48930,-0.339949876070023,0
49040,-0.340157032012939,0
49150,-0.33932837843895,0
49250,-0.339949876070023,0
49360,-0.34077849984169,0
49470,-0.340571343898773,0
49580,-0.339949876070023,0
49690,-0.340571343898773,0
49800,-0.339949876070023,0
49910,-0.340571343898773,0
50020,-0.340157032012939,0
50130,-0.340571343898773,0
50240,-0.339535564184189,0
50350,-0.339742720127106,0
50460,-0.340571343898773,0
50570,-0.339535564184189,0
50670,-0.340985685586929,0
50780,-0.338914066553116,0
50890,-0.33932837843895,0
51000,-0.33932837843895,0
51110,-0.339949876070023,0
51220,-0.341399997472763,0
51330,-0.340157032012939,0
51440,-0.340571343898773,0
51550,-0.340157032012939,0
51660,-0.340364187955856,0
51770,-0.340364187955856,0
51880,-0.340364187955856,0
51980,-0.340364187955856,0
52090,-0.340571343898773,0
52200,-0.340571343898773,0
52310,-0.34077849984169,0
52420,-0.341399997472763,0
52530,-0.34077849984169,0
52640,-0.340157032012939,0
52750,-0.341192841529846,0
52860,-0.340364187955856,0
52970,-0.340985685586929,0
53080,-0.340364187955856,0
53190,-0.340571343898773,0
53300,-0.339949876070023,0
53400,-0.34077849984169,0
53510,-0.340571343898773,0
53620,-0.340985685586929,0
53730,-0.340985685586929,0
53840,-0.34077849984169,0
53950,-0.340364187955856,0
54060,-0.339742720127106,0
54170,-0.340157032012939,0
54280,-0.339949876070023,0
54390,-0.339742720127106,0
54500,-0.339535564184189,0
54610,-0.341192841529846,0
54710,-0.339742720127106,0
54820,-0.340157032012939,0
54930,-0.338914066553116,0
55040,-0.340364187955856,0
55150,-0.340364187955856,0
55260,-0.340571343898773,0
55370,-0.339535564184189,0
55480,-0.34077849984169,0
55590,-0.339121222496033,0
55700,-0.340157032012939,0
55810,-0.340364187955856,0
55920,-0.340364187955856,0
56030,-0.340364187955856,0
56130,-0.339121222496033,0
56240,-0.340157032012939,0
56350,-0.340364187955856,0
56460,-0.340364187955856,0
56570,-0.34077849984169,0
56680,-0.340571343898773,0
56790,-0.340985685586929,0
56900,-0.341399997472763,0
57010,-0.341399997472763,0
57120,-0.340157032012939,0
57230,-0.340985685586929,0
57340,-0.340571343898773,0
57440,-0.340571343898773,0
57550,-0.339949876070023,0
57660,-0.34077849984169,0
57770,-0.339742720127106,0
57880,-0.341399997472763,0
57990,-0.339949876070023,0
58100,-0.339121222496033,0
58210,-0.339949876070023,0
58320,-0.340364187955856,0
58430,-0.340985685586929,0
58540,-0.33932837843895,0
58650,-0.339949876070023,0
58760,-0.340571343898773,0
58860,-0.340364187955856,0
58970,-0.340364187955856,0
59080,-0.340571343898773,0
59190,-0.341192841529846,0
59300,-0.339949876070023,0
59410,-0.339535564184189,0
59520,-0.340985685586929,0
59630,-0.340985685586929,0
59740,-0.34077849984169,0
59850,-0.340157032012939,0
59960,-0.340157032012939,0
60070,-0.34077849984169,0
60170,-0.342021465301514,0
60280,-0.340364187955856,0
60390,-0.339742720127106,0
60500,-0.34160715341568,0
60610,-0.340364187955856,0
60720,-0.340571343898773,0
60830,-0.340985685586929,0
60940,-0.339535564184189,0
61050,-0.34077849984169,0
61160,-0.339742720127106,0
61270,-0.340157032012939,0
61380,-0.339949876070023,0
61490,-0.339535564184189,0
61590,-0.340571343898773,0
61700,-0.340364187955856,0
61810,-0.340985685586929,0
61920,-0.340364187955856,0
62030,-0.340985685586929,0
62140,-0.340364187955856,0
62250,-0.340571343898773,0
62360,-0.339742720127106,0
62470,-0.340364187955856,0
62580,-0.339742720127106,0
62690,-0.339949876070023,0
62800,-0.340364187955856,0
62900,-0.340157032012939,0
63010,-0.339949876070023,0
63120,-0.341192841529846,0
63230,-0.34077849984169,0
63340,-0.340364187955856,0
63450,-0.340985685586929,0
63560,-0.339535564184189,0
63670,-0.340157032012939,0
63780,-0.340571343898773,0
63890,-0.339949876070023,0
64000,-0.34077849984169,0
64110,-0.341192841529846,0
64220,-0.340985685586929,0
64320,-0.339949876070023,0
64430,-0.341192841529846,0
64540,-0.341192841529846,0
64650,-0.339121222496033,0
64760,-0.340157032012939,0
64870,-0.340364187955856,0
64980,-0.33932837843895,0
65090,-0.341399997472763,0
65200,-0.340571343898773,0
65310,-0.340157032012939,0
65420,-0.340157032012939,0
65530,-0.34077849984169,0
65630,-0.339535564184189,0
65740,-0.340571343898773,0
65850,-0.340364187955856,0
65960,-0.340157032012939,0
66070,-0.34077849984169,0
66180,-0.340364187955856,0
66290,-0.342021465301514,0
66400,-0.339742720127106,0
66510,-0.341192841529846,0
66620,-0.340157032012939,0
66730,-0.34077849984169,0
66840,-0.340157032012939,0
66950,-0.340364187955856,0
67050,-0.34077849984169,0
67170,-0.339949876070023,0
67270,-0.340157032012939,0
67380,-0.341192841529846,0
67490,-0.340157032012939,0
67600,-0.341192841529846,0
67710,-0.341192841529846,0
67820,-0.340985685586929,0
67930,-0.340985685586929,0
68040,-0.340571343898773,0
68150,-0.34160715341568,0
68260,-0.34160715341568,0
68360,-0.34077849984169,0
68470,-0.340985685586929,0
68580,-0.340157032012939,0
68690,-0.339949876070023,0
68800,-0.341192841529846,0
68910,-0.339535564184189,0
69020,-0.341814309358597,0
69130,-0.34077849984169,0
69240,-0.34077849984169,0
69350,-0.340571343898773,0
69460,-0.340157032012939,0
69570,-0.34077849984169,0
69680,-0.339742720127106,0
69780,-0.339949876070023,0
69890,-0.341399997472763,0
70000,-0.341399997472763,0
70110,-0.340571343898773,0
70220,-0.341192841529846,0
70330,-0.340571343898773,0
70440,-0.339742720127106,0
70550,-0.34160715341568,0
70660,-0.34077849984169,0
70770,-0.341192841529846,0
70880,-0.340364187955856,0
70990,-0.340157032012939,0
71090,-0.340571343898773,0
71200,-0.341399997472763,0
71310,-0.340985685586929,0
71420,-0.339742720127106,0
71530,-0.340364187955856,0
71640,-0.340985685586929,0
71750,-0.340985685586929,0
71860,-0.339949876070023,0
71970,-0.341399997472763,0
72080,-0.340157032012939,0
72190,-0.341192841529846,0
72300,-0.340571343898773,0
72410,-0.340985685586929,0
72510,-0.33932837843895,0
72620,-0.340364187955856,0
72730,-0.342021465301514,0
72840,-0.340157032012939,0
72950,-0.339742720127106,0
73060,-0.341399997472763,0
73170,-0.339949876070023,0
73280,-0.339949876070023,0
73390,-0.341192841529846,0
73500,-0.340571343898773,0
73610,-0.341399997472763,0
73720,-0.34077849984169,0
73820,-0.341399997472763,0
73930,-0.34077849984169,0
74040,-0.339949876070023,0
74150,-0.339535564184189,0
74260,-0.340364187955856,0
74370,-0.340364187955856,0
74480,-0.340571343898773,0
74590,-0.340157032012939,0
74700,-0.340157032012939,0
74810,-0.341192841529846,0
74920,-0.340571343898773,0
75030,-0.340157032012939,0
75140,-0.340985685586929,0
75240,-0.340571343898773,0
75350,-0.34077849984169,0
75460,-0.340985685586929,0
75570,-0.34077849984169,0
75680,-0.341192841529846,0
75790,-0.340985685586929,0
75900,-0.340571343898773,0
76010,-0.340157032012939,0
76120,-0.34077849984169,0
76230,-0.340571343898773,0
76340,-0.34077849984169,0
76450,-0.340571343898773,0
76550,-0.340571343898773,0
76660,-0.341192841529846,0
76770,-0.340364187955856,0
76880,-0.341192841529846,0
76990,-0.340571343898773,0
77100,-0.34077849984169,0
77210,-0.340571343898773,0
77320,-0.341814309358597,0
77430,-0.339949876070023,0
77540,-0.34160715341568,0
77650,-0.341399997472763,0
77760,-0.341814309358597,0
77870,-0.342228621244431,0
77970,-0.340364187955856,0
78080,-0.342021465301514,0
78190,-0.340571343898773,0
78300,-0.34160715341568,0
78410,-0.341399997472763,0
78520,-0.339949876070023,0
78630,-0.34077849984169,0
78740,-0.340985685586929,0
78850,-0.34077849984169,0
78960,-0.341192841529846,0
79070,-0.340364187955856,0
79180,-0.339742720127106,0
79280,-0.34160715341568,0
79390,-0.341814309358597,0
79500,-0.34077849984169,0
79610,-0.340985685586929,0
79720,-0.341399997472763,0
79830,-0.341399997472763,0
79940,-0.341192841529846,0
80050,-0.340157032012939,0
80160,-0.340571343898773,0
80270,-0.340985685586929,0
80380,-0.33932837843895,0
80490,-0.340985685586929,0
80600,-0.340157032012939,0
80700,-0.341192841529846,0
80810,-0.339121222496033,0
80920,-0.341192841529846,0
81030,-0.340571343898773,0
81140,-0.340985685586929,0
81250,-0.340364187955856,0
81360,-0.34077849984169,0
81470,-0.340157032012939,0
81580,-0.340364187955856,0
81690,-0.340571343898773,0
81800,-0.340985685586929,0
81910,-0.339742720127106,0
82010,-0.341192841529846,0
82120,-0.341192841529846,0
82230,-0.339949876070023,0
82340,-0.34077849984169,0
82450,-0.34077849984169,0
82560,-0.341814309358597,0
82670,-0.340571343898773,0
82780,-0.34160715341568,0
82890,-0.340985685586929,0
83000,-0.34160715341568,0
83110,-0.34077849984169,0
83220,-0.341399997472763,0
83330,-0.341814309358597,0
83430,-0.340364187955856,0
83540,-0.342021465301514,0
83650,-0.340157032012939,0
83760,-0.340985685586929,0
83870,-0.338914066553116,0
83980,-0.340571343898773,0
84090,-0.34160715341568,0
84200,-0.340571343898773,0
84310,-0.34077849984169,0
84420,-0.340364187955856,0
84530,-0.340571343898773,0
84640,-0.341192841529846,0
84740,-0.340157032012939,0
84850,-0.341399997472763,0
84960,-0.34160715341568,0
85070,-0.34160715341568,0
85180,-0.34077849984169,0
85290,-0.341399997472763,0
85400,-0.34077849984169,0
85510,-0.340571343898773,0
85620,-0.34077849984169,0
85730,-0.341192841529846,0
85840,-0.340364187955856,0
85950,-0.339949876070023,0
86060,-0.340985685586929,0
86160,-0.341399997472763,0
86270,-0.340364187955856,0
86380,-0.34160715341568,0
86490,-0.340364187955856,0
86600,-0.339742720127106,0
86710,-0.341814309358597,0
86820,-0.341814309358597,0
86930,-0.341814309358597,0
87040,-0.34077849984169,0
87150,-0.34160715341568,0
87260,-0.340985685586929,0
87370,-0.341192841529846,0
87470,-0.341192841529846,0
87580,-0.34160715341568,0
87690,-0.34077849984169,0
87800,-0.34077849984169,0
87910,-0.33932837843895,0
88020,-0.341192841529846,0
88130,-0.340571343898773,0
88240,-0.341192841529846,0
88350,-0.34077849984169,0
88460,-0.341399997472763,0
88570,-0.341192841529846,0
88680,-0.340571343898773,0
88790,-0.340571343898773,0
88890,-0.340571343898773,0
89000,-0.341399997472763,0
89110,-0.341399997472763,0
89220,-0.340985685586929,0
89330,-0.340364187955856,0
89440,-0.340985685586929,0
89550,-0.341192841529846,0
89660,-0.340364187955856,0
89770,-0.340985685586929,0
89880,-0.34077849984169,0
89990,-0.341814309358597,0
90100,-0.34160715341568,0
90200,-0.340364187955856,0
90310,-0.34077849984169,0
90420,-0.341814309358597,0
90530,-0.341399997472763,0
90640,-0.339535564184189,0
90750,-0.340364187955856,0
90860,-0.341399997472763,0
90970,-0.340571343898773,0
91080,-0.341399997472763,0
91190,-0.340364187955856,0
91300,-0.340571343898773,0
91410,-0.340985685586929,0
91520,-0.340985685586929,0
91620,-0.338914066553116,0
91730,-0.340364187955856,0
91840,-0.34077849984169,0
91950,-0.340985685586929,0
92060,-0.341399997472763,0
92170,-0.34160715341568,0
92280,-0.340157032012939,0
92390,-0.34388592839241,0
92500,-0.341192841529846,0
92610,-0.340985685586929,0
92720,-0.339535564184189,0
92830,-0.341192841529846,0
92930,-0.341814309358597,0
93040,-0.340985685586929,0
93150,-0.340157032012939,0
93260,-0.339949876070023,0
93370,-0.34077849984169,0
93480,-0.340157032012939,0
93590,-0.34243580698967,0
93700,-0.34243580698967,0
93810,-0.340985685586929,0
93920,-0.339949876070023,0
94030,-0.34160715341568,0
94140,-0.340571343898773,0
94250,-0.34160715341568,0
94350,-0.33932837843895,0
94460,-0.34077849984169,0
94570,-0.34160715341568,0
94680,-0.340364187955856,0
94790,-0.341814309358597,0
94900,-0.341399997472763,0
95010,-0.340571343898773,0
95120,-0.340364187955856,0
95230,-0.341399997472763,0
95340,-0.341399997472763,0
95450,-0.340571343898773,0
95560,-0.340364187955856,0
95660,-0.339949876070023,0
95770,-0.339949876070023,0
95880,-0.341814309358597,0
95990,-0.341192841529846,0
96100,-0.34077849984169,0
96210,-0.339949876070023,0
96320,-0.340364187955856,0
96430,-0.339742720127106,0
96540,-0.340571343898773,0
96650,-0.34077849984169,0
96760,-0.341399997472763,0
96870,-0.340571343898773,0
96980,-0.341399997472763,0
97080,-0.339742720127106,0
97190,-0.34077849984169,0
97300,-0.341399997472763,0
97410,-0.341399997472763,0
97520,-0.339742720127106,0
97630,-0.340364187955856,0
97740,-0.340364187955856,0
97850,-0.340571343898773,0
97960,-0.340571343898773,0
98070,-0.339949876070023,0
98180,-0.340157032012939,0
98290,-0.341399997472763,0
98400,-0.34160715341568,0
98500,-0.340571343898773,0
98610,-0.340364187955856,0
98720,-0.339742720127106,0
98830,-0.341192841529846,0
98940,-0.34077849984169,0
99050,-0.340571343898773,0
99160,-0.340364187955856,0
99270,-0.340571343898773,0
99380,-0.340571343898773,0
99490,-0.340364187955856,0
99600,-0.340985685586929,0
99710,-0.34077849984169,0
99810,-0.341814309358597,0
99920,-0.339949876070023,0
100030,-0.339949876070023,0
100140,-0.339742720127106,0
100250,-0.341192841529846,0
100360,-0.342021465301514,0
100470,-0.340571343898773,0
100580,-0.339949876070023,0
100690,-0.340985685586929,0
100800,-0.340985685586929,0
100910,-0.34160715341568,0
101020,-0.340985685586929,0
101130,-0.339949876070023,0
101230,-0.340364187955856,0
101340,-0.341814309358597,0
101450,-0.34077849984169,0
101560,-0.341814309358597,0
101670,-0.341399997472763,0
101780,-0.339949876070023,0
101890,-0.339949876070023,0
102000,-0.34077849984169,0
102110,-0.340985685586929,0
102220,-0.340985685586929,0
102330,-0.34160715341568,0
102440,-0.341192841529846,0
102540,-0.34077849984169,0
102650,-0.341192841529846,0
102760,-0.341399997472763,0
102870,-0.339949876070023,0
102980,-0.341192841529846,0
103090,-0.34077849984169,0
103200,-0.341192841529846,0
103310,-0.340985685586929,0
103420,-0.340571343898773,0
103530,-0.34160715341568,0
103640,-0.34243580698967,0
103750,-0.340571343898773,0
103860,-0.340571343898773,0
103960,-0.339742720127106,0
104070,-0.34077849984169,0
104180,-0.340364187955856,0
104290,-0.34243580698967,0
104400,-0.340985685586929,0
104510,-0.340157032012939,0
104620,-0.34077849984169,0
104730,-0.340364187955856,0
104840,-0.34077849984169,0
104950,-0.34160715341568,0
105060,-0.340985685586929,0
105170,-0.340571343898773,0
105270,-0.340571343898773,0
105380,-0.34077849984169,0
105490,-0.34160715341568,0
105600,-0.34160715341568,0
105710,-0.34077849984169,0
105820,-0.340985685586929,0
105930,-0.340571343898773,0
106040,-0.341399997472763,0
106150,-0.341192841529846,0
106260,-0.340157032012939,0
106370,-0.34077849984169,0
106480,-0.341192841529846,0
106590,-0.34077849984169,0
106690,-0.341192841529846,0
106800,-0.340571343898773,0
106910,-0.339949876070023,0
107020,-0.341814309358597,0
107130,-0.341399997472763,0
107240,-0.340985685586929,0
107350,-0.34077849984169,0
107460,-0.340364187955856,0
107570,-0.340985685586929,0
107680,-0.342021465301514,0
107790,-0.340985685586929,0
107900,-0.341399997472763,0
108000,-0.341814309358597,0
108110,-0.339742720127106,0
108220,-0.341814309358597,0
108330,-0.341814309358597,0
108440,-0.342228621244431,0
108550,-0.34160715341568,0
108660,-0.340571343898773,0
108770,-0.340364187955856,0
108880,-0.339949876070023,0
108990,-0.340985685586929,0
109100,-0.339742720127106,0
109210,-0.339949876070023,0
109320,-0.342021465301514,0
109420,-0.340571343898773,0
109530,-0.340985685586929,0
109640,-0.341399997472763,0
109750,-0.340364187955856,0
109860,-0.340985685586929,0
109970,-0.34160715341568,0
110080,-0.340571343898773,0
110190,-0.342021465301514,0
110300,-0.339535564184189,0
110410,-0.342021465301514,0
110520,-0.340985685586929,0
110630,-0.34160715341568,0
110730,-0.34243580698967,0
110840,-0.341399997472763,0
110950,-0.34160715341568,0
111060,-0.341399997472763,0
111170,-0.341814309358597,0
111280,-0.341192841529846,0
111390,-0.339742720127106,0
111500,-0.34160715341568,0
111610,-0.342021465301514,0
111720,-0.341192841529846,0
111830,-0.342850118875504,0
111940,-0.340571343898773,0
112050,-0.340985685586929,0
112150,-0.340571343898773,0
112260,-0.342021465301514,0
112370,-0.340985685586929,0
112480,-0.340985685586929,0
112590,-0.34077849984169,0
112700,-0.340157032012939,0
112810,-0.341814309358597,0
112920,-0.340571343898773,0
113030,-0.34077849984169,0
113140,-0.342021465301514,0
113250,-0.341399997472763,0
113360,-0.340571343898773,0
113460,-0.341814309358597,0
113570,-0.339949876070023,0
113680,-0.34077849984169,0
113790,-0.341192841529846,0
113900,-0.34077849984169,0
114010,-0.339742720127106,0
114120,-0.341192841529846,0
114230,-0.341192841529846,0
114340,-0.341814309358597,0
114450,-0.340364187955856,0
114560,-0.341399997472763,0
114670,-0.340364187955856,0
114780,-0.34077849984169,0
114880,-0.340571343898773,0
114990,-0.341399997472763,0
115100,-0.34243580698967,0
115210,-0.341399997472763,0
115320,-0.340571343898773,0
115430,-0.340985685586929,0
115540,-0.340364187955856,0
115650,-0.341399997472763,0
115760,-0.342228621244431,0
115870,-0.341814309358597,0
115980,-0.340985685586929,0
116090,-0.341192841529846,0
116190,-0.340157032012939,0
116300,-0.34160715341568,0
116410,-0.340571343898773,0
116520,-0.34077849984169,0
116630,-0.34243580698967,0
116740,-0.341399997472763,0
116850,-0.340985685586929,0
116960,-0.342021465301514,0
117070,-0.34160715341568,0
117180,-0.340157032012939,0
117290,-0.339949876070023,0
117400,-0.34077849984169,0
117510,-0.34077849984169,0
117610,-0.341399997472763,0
117720,-0.341192841529846,0
117830,-0.341192841529846,0
117940,-0.340985685586929,0
118050,-0.340364187955856,0
118160,-0.341192841529846,0
118270,-0.341399997472763,0
118380,-0.341192841529846,0
118490,-0.340571343898773,0
118600,-0.340571343898773,0
118710,-0.34160715341568,0
118820,-0.341814309358597,0
118920,-0.34160715341568,0
119030,-0.341192841529846,0
119140,-0.340985685586929,0
119250,-0.341192841529846,0
119360,-0.341814309358597,0
119470,-0.341399997472763,0
119580,-0.341399997472763,0
119690,-0.34160715341568,0
119800,-0.341192841529846,0
119910,-0.340364187955856,0
120020,-0.340985685586929,0
120130,-0.341192841529846,0
120240,-0.341399997472763,0
120340,-0.339742720127106,0
120450,-0.339949876070023,0
120560,-0.341192841529846,0
120670,-0.340571343898773,0
120780,-0.341192841529846,0
120890,-0.34160715341568,0
121000,-0.341192841529846,0
121110,-0.34160715341568,0
121220,-0.339742720127106,0
121330,-0.340571343898773,0
121440,-0.340571343898773,0
121550,-0.34077849984169,0
121650,-0.341192841529846,0
121760,-0.340571343898773,0
121870,-0.34160715341568,0
121980,-0.341399997472763,0
122090,-0.341192841529846,0
122200,-0.340571343898773,0
122310,-0.34077849984169,0
122420,-0.341192841529846,0
122530,-0.340571343898773,0
122640,-0.340157032012939,0
122750,-0.341814309358597,0
122860,-0.34077849984169,0
122970,-0.341814309358597,0
123070,-0.340985685586929,0
123180,-0.340364187955856,0
123290,-0.341399997472763,0
123400,-0.34160715341568,0
123510,-0.34243580698967,0
123620,-0.342021465301514,0
123730,-0.342021465301514,0
123840,-0.34160715341568,0
123950,-0.340157032012939,0
124060,-0.342021465301514,0
124170,-0.340571343898773,0
124280,-0.340985685586929,0
124380,-0.341399997472763,0
124490,-0.339949876070023,0
124600,-0.341192841529846,0
124710,-0.342228621244431,0
124820,-0.341399997472763,0
124930,-0.342228621244431,0
125040,-0.341192841529846,0
125150,-0.340571343898773,0
125260,-0.34243580698967,0
125370,-0.340364187955856,0
125480,-0.341192841529846,0
125590,-0.341814309358597,0
125700,-0.341814309358597,0
125800,-0.340985685586929,0
125910,-0.339742720127106,0
126020,-0.341399997472763,0
126130,-0.34160715341568,0
126240,-0.340571343898773,0
126350,-0.34160715341568,0
126460,-0.340985685586929,0
126570,-0.340985685586929,0
126680,-0.340364187955856,0
126790,-0.340364187955856,0
126900,-0.34077849984169,0
127010,-0.340985685586929,0
127110,-0.34077849984169,0
127220,-0.341399997472763,0
127330,-0.34160715341568,0
127440,-0.340571343898773,0
127550,-0.34160715341568,0
127660,-0.340364187955856,0
127770,-0.340985685586929,0
127880,-0.340157032012939,0
127990,-0.341814309358597,0
128100,-0.341192841529846,0
128210,-0.341399997472763,0
128320,-0.340157032012939,0
128430,-0.340985685586929,0
128530,-0.339949876070023,0
128640,-0.341192841529846,0
128750,-0.341399997472763,0
128860,-0.33932837843895,0
128970,-0.341192841529846,0
129080,-0.339949876070023,0
129190,-0.339949876070023,0
129300,-0.339535564184189,0
129410,-0.34077849984169,0
129520,-0.341399997472763,0
129630,-0.340157032012939,0
129740,-0.342021465301514,0
129840,-0.340985685586929,0
129950,-0.34160715341568,0
130060,-0.342228621244431,0
130170,-0.34160715341568,0
130280,-0.340157032012939,0
130390,-0.341192841529846,0
130500,-0.341192841529846,0
130610,-0.341814309358597,0
130720,-0.339949876070023,0
130830,-0.34160715341568,0
130940,-0.342021465301514,0
131050,-0.34077849984169,0
131160,-0.340985685586929,0
131260,-0.341192841529846,0
131370,-0.341192841529846,0
131480,-0.340364187955856,0
131590,-0.340157032012939,0
131700,-0.340364187955856,0
131810,-0.341192841529846,0
131920,-0.34160715341568,0
132030,-0.341399997472763,0
132140,-0.340571343898773,0
132250,-0.340571343898773,0
132360,-0.340571343898773,0
132470,-0.340364187955856,0
132570,-0.341399997472763,0
132680,-0.340985685586929,0
132790,-0.34160715341568,0
132900,-0.340985685586929,0
133010,-0.341399997472763,0
133120,-0.341192841529846,0
133230,-0.340571343898773,0
133340,-0.340157032012939,0
133450,-0.340985685586929,0
133560,-0.342021465301514,0
133670,-0.341192841529846,0
133780,-0.34160715341568,0
133890,-0.341192841529846,0
133990,-0.341192841529846,0
134100,-0.340364187955856,0
134210,-0.34160715341568,0
134320,-0.34243580698967,0
134430,-0.342021465301514,0
134540,-0.342021465301514,0
134650,-0.341192841529846,0
134760,-0.340985685586929,0
134870,-0.34160715341568,0
134980,-0.340157032012939,0
135090,-0.341814309358597,0
135200,-0.342228621244431,0
135300,-0.340571343898773,0
135410,-0.340571343898773,0
135520,-0.339949876070023,0
135630,-0.340571343898773,0
135740,-0.340364187955856,0
135850,-0.340364187955856,0
135960,-0.341399997472763,0
136070,-0.339742720127106,0
136180,-0.339742720127106,0
136290,-0.341814309358597,0
136400,-0.340985685586929,0
136510,-0.340985685586929,0
136620,-0.340985685586929,0
136720,-0.34077849984169,0
136830,-0.340364187955856,0
136940,-0.339742720127106,0
137050,-0.34160715341568,0
137160,-0.340985685586929,0
137270,-0.340364187955856,0
137380,-0.341192841529846,0
137490,-0.341399997472763,0
137600,-0.340985685586929,0
137710,-0.341192841529846,0
137820,-0.340157032012939,0
137930,-0.340985685586929,0
138030,-0.340364187955856,0
138140,-0.340364187955856,0
138250,-0.340571343898773,0
138360,-0.340157032012939,0
138470,-0.340364187955856,0
138580,-0.340985685586929,0
138690,-0.341399997472763,0
138800,-0.341192841529846,0
138910,-0.342021465301514,0
139020,-0.340985685586929,0
139130,-0.34160715341568,0
139240,-0.341814309358597,0
139350,-0.341399997472763,0
139450,-0.340157032012939,0
139560,-0.340985685586929,0
139670,-0.340985685586929,0
139780,-0.341192841529846,0
139890,-0.341399997472763,0
140000,-0.340985685586929,0
140110,-0.340571343898773,0
140220,-0.34160715341568,0
140330,-0.339535564184189,0
140440,-0.340985685586929,0
140550,-0.341399997472763,0
140660,-0.341399997472763,0
140760,-0.342021465301514,0
140870,-0.340571343898773,0
140980,-0.34077849984169,0
141090,-0.341399997472763,0
141200,-0.34160715341568,0
141310,-0.340985685586929,0
141420,-0.341814309358597,0
141530,-0.340985685586929,0
141640,-0.340157032012939,0
141750,-0.34077849984169,0
141860,-0.34077849984169,0
141970,-0.340364187955856,0
142080,-0.340157032012939,0
142180,-0.341192841529846,0
142290,-0.339949876070023,0
142400,-0.340571343898773,0
142510,-0.341192841529846,0
142620,-0.340985685586929,0
142730,-0.34160715341568,0
142840,-0.340985685586929,0
142950,-0.34077849984169,0
143060,-0.341814309358597,0
143170,-0.340364187955856,0
143280,-0.342021465301514,0
143390,-0.341192841529846,0
143490,-0.340985685586929,0
143600,-0.340571343898773,0
143710,-0.34077849984169,0
143820,-0.340985685586929,0
143930,-0.34077849984169,0
144040,-0.341399997472763,0
144150,-0.34077849984169,0
144260,-0.340157032012939,0
144370,-0.34160715341568,0
144480,-0.342228621244431,0
144590,-0.341192841529846,0
144700,-0.340157032012939,0
144810,-0.34077849984169,0
144910,-0.34160715341568,0
145020,-0.342021465301514,0
145130,-0.340571343898773,0
145240,-0.341399997472763,0
145350,-0.342642962932587,0
145460,-0.34077849984169,0
145570,-0.340364187955856,0
145680,-0.340571343898773,0
145790,-0.34243580698967,0
145900,-0.34160715341568,0
146010,-0.34243580698967,0
146120,-0.341192841529846,0
146220,-0.340157032012939,0
146330,-0.342021465301514,0
146440,-0.341399997472763,0
146550,-0.34160715341568,0
146660,-0.341399997472763,0
146770,-0.340571343898773,0
146880,-0.341399997472763,0
146990,-0.341814309358597,0
147100,-0.34077849984169,0
147210,-0.340364187955856,0
147320,-0.34160715341568,0
147430,-0.34160715341568,0
147540,-0.340571343898773,0
147640,-0.340571343898773,0
147750,-0.34077849984169,0
147860,-0.34077849984169,0
147970,-0.34077849984169,0
148080,-0.341192841529846,0
148190,-0.341192841529846,0
148300,-0.341399997472763,0
148410,-0.342228621244431,0
148520,-0.340364187955856,0
148630,-0.341399997472763,0
148740,-0.340985685586929,0
148850,-0.34077849984169,0
148950,-0.341814309358597,0
149060,-0.341399997472763,0
149170,-0.340571343898773,0
149280,-0.34077849984169,0
149390,-0.342642962932587,0
149500,-0.341192841529846,0
149610,-0.342642962932587,0
149720,-0.341814309358597,0
149830,-0.34160715341568,0
149940,-0.341399997472763,0
150050,-0.341192841529846,0
150160,-0.340985685586929,0
150270,-0.34160715341568,0
150370,-0.34160715341568,0
150480,-0.340571343898773,0
150590,-0.342021465301514,0
150700,-0.341399997472763,0
150810,-0.340571343898773,0
150920,-0.34077849984169,0
151030,-0.340985685586929,0
151140,-0.340157032012939,0
151250,-0.341192841529846,0
151360,-0.342021465301514,0
151470,-0.34160715341568,0
151580,-0.339949876070023,0
151680,-0.34160715341568,0
151790,-0.340985685586929,0
151900,-0.34077849984169,0
152010,-0.340985685586929,0
152120,-0.342228621244431,0
152230,-0.340364187955856,0
152340,-0.340985685586929,0
152450,-0.340985685586929,0
152560,-0.340571343898773,0
152670,-0.341399997472763,0
152780,-0.341192841529846,0
152890,-0.340364187955856,0
153000,-0.341192841529846,0
153100,-0.340571343898773,0
153210,-0.34077849984169,0
153320,-0.341814309358597,0
153430,-0.340985685586929,0
153540,-0.341814309358597,0
153650,-0.340985685586929,0
153760,-0.340157032012939,0
153870,-0.341399997472763,0
153980,-0.34160715341568,0
154090,-0.34160715341568,0
154200,-0.340985685586929,0
154310,-0.340985685586929,0
154410,-0.341192841529846,0
154520,-0.34077849984169,0
154630,-0.340985685586929,0
154740,-0.340571343898773,0
154850,-0.341399997472763,0
154960,-0.340571343898773,0
155070,-0.341814309358597,0
155180,-0.34160715341568,0
155290,-0.342228621244431,0
155400,-0.341399997472763,0
155510,-0.342228621244431,0
155620,-0.340571343898773,0
155730,-0.340985685586929,0
155830,-0.341192841529846,0
155940,-0.341192841529846,0
156050,-0.34160715341568,0
156160,-0.341399997472763,0
156270,-0.340571343898773,0
156380,-0.341814309358597,0
156490,-0.34077849984169,0
156600,-0.341192841529846,0
156710,-0.341399997472763,0
156820,-0.341814309358597,0
156930,-0.34160715341568,0
157040,-0.33932837843895,0
157140,-0.340571343898773,0
157250,-0.341399997472763,0
157360,-0.341814309358597,0
157470,-0.340985685586929,0
157580,-0.340985685586929,0
157690,-0.340985685586929,0
157800,-0.341814309358597,0
157910,-0.34160715341568,0
158020,-0.340571343898773,0
158130,-0.34160715341568,0
158240,-0.342021465301514,0
158350,-0.340571343898773,0
158460,-0.34160715341568,0
158560,-0.341814309358597,0
158670,-0.340985685586929,0
158780,-0.34243580698967,0
158890,-0.340985685586929,0
159000,-0.34243580698967,0
159110,-0.34077849984169,0
159220,-0.34077849984169,0
159330,-0.34077849984169,0
159440,-0.34160715341568,0
159550,-0.341192841529846,0
159660,-0.340571343898773,0
159770,-0.341399997472763,0
159870,-0.34160715341568,0
159980,-0.340571343898773,0
160090,-0.341192841529846,0
160200,-0.340985685586929,0
160310,-0.34160715341568,0
160420,-0.34077849984169,0
160530,-0.341399997472763,0
160640,-0.340985685586929,0
160750,-0.34160715341568,0
160860,-0.342228621244431,0
160970,-0.341399997472763,0
161080,-0.34160715341568,0
161190,-0.340985685586929,0
161290,-0.34160715341568,0
161400,-0.341814309358597,0
161510,-0.34243580698967,0
161620,-0.34077849984169,0
161730,-0.341814309358597,0
161840,-0.340157032012939,0
161950,-0.34160715341568,0
162060,-0.341192841529846,0
162170,-0.34077849984169,0
162280,-0.341814309358597,0
162390,-0.340571343898773,0
162500,-0.340364187955856,0
162600,-0.340571343898773,0
162710,-0.340364187955856,0
162820,-0.342642962932587,0
162930,-0.341814309358597,0
163040,-0.341192841529846,0
163150,-0.341192841529846,0
163260,-0.341192841529846,0
163370,-0.341192841529846,0
163480,-0.340985685586929,0
163590,-0.340157032012939,0
163700,-0.34160715341568,0
163810,-0.340985685586929,0
163920,-0.342642962932587,0
164020,-0.339949876070023,0
164130,-0.340571343898773,0
164240,-0.341399997472763,0
164350,-0.340364187955856,0
164460,-0.34160715341568,0
164570,-0.34160715341568,0
164680,-0.34243580698967,0
164790,-0.341192841529846,0
164900,-0.34077849984169,0
165010,-0.342021465301514,0
165120,-0.341192841529846,0
165230,-0.341399997472763,0
165330,-0.340985685586929,0
165440,-0.340364187955856,0
165550,-0.340364187955856,0
165660,-0.34077849984169,0
165770,-0.341192841529846,0
165880,-0.34160715341568,0
165990,-0.340157032012939,0
166100,-0.342021465301514,0
166210,-0.34160715341568,0
166320,-0.340364187955856,0
166430,-0.341814309358597,0
166540,-0.340571343898773,0
166650,-0.340985685586929,0
166750,-0.341192841529846,0
166860,-0.340364187955856,0
166970,-0.342021465301514,0
167080,-0.34160715341568,0
167190,-0.34160715341568,0
167300,-0.34077849984169,0
167410,-0.340364187955856,0
167520,-0.34160715341568,0
167630,-0.34077849984169,0
167740,-0.339949876070023,0
167850,-0.341814309358597,0
167960,-0.340985685586929,0
168060,-0.34077849984169,0
168170,-0.340985685586929,0
168280,-0.34077849984169,0
168390,-0.341399997472763,0
168500,-0.340364187955856,0
168610,-0.342850118875504,0
168720,-0.340157032012939,0
168830,-0.342642962932587,0
168940,-0.34077849984169,0
169050,-0.340571343898773,0
169160,-0.341192841529846,0
169270,-0.341192841529846,0
169380,-0.340157032012939,0
169480,-0.341814309358597,0
169590,-0.340571343898773,0
169700,-0.34160715341568,0
169810,-0.341399997472763,0
169920,-0.341399997472763,0
170030,-0.340571343898773,0
170140,-0.340985685586929,0
170250,-0.342021465301514,0
170360,-0.34077849984169,0
170470,-0.341399997472763,0
170580,-0.34077849984169,0
170690,-0.340571343898773,0
170790,-0.340157032012939,0
170900,-0.340985685586929,0
171010,-0.340571343898773,0
171120,-0.34160715341568,0
171230,-0.341814309358597,0
171340,-0.340364187955856,0
171450,-0.340985685586929,0
171560,-0.342228621244431,0
171670,-0.340985685586929,0
171780,-0.341814309358597,0
171890,-0.340571343898773,0
172000,-0.34160715341568,0
172110,-0.34077849984169,0
172210,-0.340985685586929,0
172320,-0.341399997472763,0
172430,-0.341399997472763,0
172540,-0.341399997472763,0
172650,-0.341814309358597,0
172760,-0.34160715341568,0
172870,-0.341192841529846,0
172980,-0.340364187955856,0
173090,-0.340985685586929,0
173200,-0.341192841529846,0
173310,-0.34305727481842,0
173420,-0.34160715341568,0
173520,-0.34160715341568,0
173630,-0.341192841529846,0
173740,-0.341192841529846,0
173850,-0.341192841529846,0
173960,-0.340985685586929,0
174070,-0.340985685586929,0
174180,-0.341192841529846,0
174290,-0.340985685586929,0
174400,-0.341399997472763,0
174510,-0.340571343898773,0
174620,-0.341399997472763,0
174730,-0.340571343898773,0
174840,-0.341399997472763,0
174940,-0.340571343898773,0
175050,-0.339742720127106,0
175160,-0.340985685586929,0
175270,-0.341192841529846,0
175380,-0.34160715341568,0
175490,-0.341814309358597,0
175600,-0.341814309358597,0
175710,-0.34077849984169,0
175820,-0.341399997472763,0
175930,-0.341399997472763,0
176040,-0.341399997472763,0
176150,-0.34160715341568,0
176250,-0.340985685586929,0
176360,-0.34243580698967,0
176470,-0.340985685586929,0
176580,-0.341192841529846,0
176690,-0.341399997472763,0
176800,-0.341814309358597,0
176910,-0.340364187955856,0
177020,-0.341814309358597,0
177130,-0.340571343898773,0
177240,-0.341399997472763,0
177350,-0.340985685586929,0
177460,-0.341399997472763,0
177570,-0.34243580698967,0
177670,-0.340571343898773,0
177780,-0.34160715341568,0
177890,-0.341192841529846,0
178000,-0.341399997472763,0
178110,-0.342228621244431,0
178220,-0.340985685586929,0
178330,-0.341192841529846,0
178440,-0.34160715341568,0
178550,-0.340985685586929,0
178660,-0.342021465301514,0
178770,-0.341399997472763,0
178880,-0.341814309358597,0
178990,-0.34077849984169,0
179090,-0.340157032012939,0
179200,-0.340157032012939,0
179310,-0.34077849984169,0
179420,-0.341399997472763,0
179530,-0.34160715341568,0
179640,-0.34077849984169,0
179750,-0.339742720127106,0
179860,-0.340571343898773,0
179970,-0.341399997472763,0
180080,-0.341192841529846,0
180190,-0.341399997472763,0
180300,-0.341814309358597,0
180400,-0.342021465301514,0
180510,-0.340985685586929,0
180620,-0.341814309358597,0
180730,-0.34160715341568,0
180840,-0.341192841529846,0
180950,-0.34077849984169,0
181060,-0.340985685586929,0
181170,-0.340985685586929,0
181280,-0.340985685586929,0
181390,-0.341399997472763,0
181500,-0.341399997472763,0
181610,-0.341399997472763,0
181720,-0.342021465301514,0
181820,-0.339949876070023,0
181930,-0.34160715341568,0
182040,-0.34160715341568,0
182150,-0.341192841529846,0
182260,-0.340364187955856,0
182370,-0.34160715341568,0
182480,-0.341399997472763,0
182590,-0.34160715341568,0
182700,-0.340571343898773,0
182810,-0.341192841529846,0
182920,-0.34243580698967,0
183030,-0.341399997472763,0
183130,-0.342228621244431,0
183240,-0.34160715341568,0
183350,-0.341399997472763,0
183460,-0.340985685586929,0
183570,-0.34160715341568,0
183680,-0.341399997472763,0
183790,-0.341192841529846,0
183900,-0.340985685586929,0
184010,-0.340364187955856,0
184120,-0.342021465301514,0
184230,-0.34077849984169,0
184340,-0.341192841529846,0
184450,-0.341814309358597,0
184550,-0.340157032012939,0
184660,-0.340985685586929,0
184770,-0.341814309358597,0
184880,-0.34160715341568,0
184990,-0.339949876070023,0
185100,-0.341399997472763,0
185210,-0.340571343898773,0
185320,-0.34077849984169,0
185430,-0.340157032012939,0
185540,-0.34243580698967,0
185650,-0.34160715341568,0
185760,-0.341399997472763,0
185860,-0.340571343898773,0
185970,-0.340364187955856,0
186080,-0.341399997472763,0
186190,-0.341814309358597,0
186300,-0.341814309358597,0
186410,-0.341192841529846,0
186520,-0.342021465301514,0
186630,-0.340985685586929,0
186740,-0.341399997472763,0
186850,-0.342021465301514,0
186960,-0.342021465301514,0
187070,-0.34160715341568,0
187180,-0.34160715341568,0
187280,-0.341814309358597,0
187390,-0.34243580698967,0
187500,-0.340364187955856,0
187610,-0.341192841529846,0
187720,-0.340157032012939,0
187830,-0.341814309358597,0
187940,-0.340985685586929,0
188050,-0.340364187955856,0
188160,-0.34077849984169,0
188270,-0.342228621244431,0
188380,-0.34077849984169,0
188490,-0.341192841529846,0
188590,-0.340985685586929,0
188700,-0.342021465301514,0
188810,-0.340571343898773,0
188920,-0.341399997472763,0
189030,-0.340985685586929,0
189140,-0.340985685586929,0
189250,-0.34077849984169,0
189360,-0.34160715341568,0
189470,-0.342228621244431,0
189580,-0.339949876070023,0
189690,-0.34077849984169,0
189800,-0.341399997472763,0
189910,-0.340571343898773,0
190010,-0.342021465301514,0
190120,-0.34243580698967,0
190230,-0.340985685586929,0
190340,-0.341399997472763,0
190450,-0.341399997472763,0
190560,-0.34243580698967,0
190670,-0.341192841529846,0
190780,-0.341399997472763,0
190890,-0.342021465301514,0
191000,-0.34077849984169,0
191110,-0.340157032012939,0
191220,-0.341399997472763,0
191320,-0.341192841529846,0
191430,-0.340985685586929,0
191540,-0.339949876070023,0
191650,-0.340157032012939,0
191760,-0.340364187955856,0
191870,-0.34077849984169,0
191980,-0.342021465301514,0
192090,-0.341399997472763,0
192200,-0.34160715341568,0
192310,-0.340157032012939,0
192420,-0.341192841529846,0
192530,-0.34077849984169,0
192640,-0.342021465301514,0
192740,-0.340571343898773,0
192850,-0.341399997472763,0
192960,-0.339742720127106,0
193070,-0.34160715341568,0
193180,-0.340985685586929,0
193290,-0.340985685586929,0
193400,-0.340985685586929,0
193510,-0.341814309358597,0
193620,-0.34160715341568,0
193730,-0.34077849984169,0
193840,-0.341399997472763,0
193950,-0.340364187955856,0
194050,-0.341192841529846,0
194160,-0.341399997472763,0
194270,-0.340157032012939,0
194380,-0.341399997472763,0
194490,-0.341399997472763,0
194600,-0.341814309358597,0
194710,-0.340571343898773,0
194820,-0.340985685586929,0
194930,-0.34077849984169,0
195040,-0.340985685586929,0
195150,-0.341192841529846,0
195260,-0.341192841529846,0
195370,-0.340364187955856,0
195470,-0.342021465301514,0
195580,-0.341192841529846,0
195690,-0.340571343898773,0
195800,-0.340985685586929,0
195910,-0.34160715341568,0
196020,-0.341399997472763,0
196130,-0.341399997472763,0
196240,-0.342228621244431,0
196350,-0.341814309358597,0
196460,-0.34243580698967,0
196570,-0.341814309358597,0
196680,-0.34077849984169,0
196780,-0.341399997472763,0
196890,-0.340985685586929,0
197000,-0.341814309358597,0
197110,-0.340364187955856,0
197220,-0.34243580698967,0
197330,-0.341399997472763,0
197440,-0.341814309358597,0
197550,-0.342228621244431,0
197660,-0.341399997472763,0
197770,-0.34160715341568,0
197880,-0.34077849984169,0
197990,-0.340985685586929,0
198100,-0.340157032012939,0
198200,-0.340157032012939,0
198310,-0.341814309358597,0
198420,-0.34160715341568,0
198530,-0.341192841529846,0
198640,-0.34243580698967,0
198750,-0.341814309358597,0
198860,-0.340985685586929,0
198970,-0.340985685586929,0
199080,-0.342228621244431,0
199190,-0.340364187955856,0
199300,-0.341192841529846,0
199410,-0.34160715341568,0
199510,-0.341814309358597,0
199620,-0.341814309358597,0
199730,-0.341399997472763,0
199840,-0.34077849984169,0
199950,-0.341399997472763,0
200060,-0.341814309358597,0
200170,-0.341399997472763,0
200280,-0.341814309358597,0
200390,-0.341814309358597,0
200500,-0.340985685586929,0
200610,-0.341192841529846,0
200720,-0.340571343898773,0
200830,-0.34077849984169,0
200930,-0.34243580698967,0
201040,-0.34160715341568,0
201150,-0.342021465301514,0
201260,-0.342021465301514,0
201370,-0.340571343898773,0
201480,-0.34077849984169,0
201590,-0.340985685586929,0
201700,-0.340571343898773,0
201810,-0.342850118875504,0
201920,-0.342642962932587,0
202030,-0.341399997472763,0
202140,-0.340364187955856,0
202240,-0.340985685586929,0
202350,-0.34160715341568,0
202460,-0.34160715341568,0
202570,-0.340571343898773,0
202680,-0.340985685586929,0
202790,-0.34160715341568,0
202900,-0.341399997472763,0
203010,-0.341814309358597,0
203120,-0.341192841529846,0
203230,-0.341814309358597,0
203340,-0.340985685586929,0
203450,-0.34160715341568,0
203560,-0.342021465301514,0
203660,-0.341814309358597,0
203770,-0.34160715341568,0
203880,-0.340985685586929,0
203990,-0.34160715341568,0
204100,-0.34160715341568,0
204210,-0.341399997472763,0
204320,-0.340985685586929,0
204430,-0.34077849984169,0
204540,-0.34160715341568,0
204650,-0.341814309358597,0
204760,-0.342021465301514,0
204870,-0.34077849984169,0
204970,-0.340364187955856,0
205080,-0.340157032012939,0
205190,-0.341814309358597,0
205300,-0.342021465301514,0
205410,-0.341399997472763,0
205520,-0.340364187955856,0
205630,-0.34077849984169,0
205740,-0.341814309358597,0
205850,-0.340985685586929,0
205960,-0.341399997472763,0
206070,-0.341399997472763,0
206180,-0.342228621244431,0
206290,-0.342021465301514,0
206390,-0.341814309358597,0
206610,-0.341192841529846,0
206500,-0.341192841529846,0
206720,-0.34160715341568,0

206830,-0.342228621244431,0206830,-0.342228621244431,0
206940,-0.340985685586929,0
207050,-0.340985685586929,0
207160,-0.339742720127106,0
207270,-0.340985685586929,0
207380,-0.341399997472763,0
207490,-0.340985685586929,0
207600,-0.34305727481842,0
207700,-0.34160715341568,0
207810,-0.341814309358597,0
207920,-0.341814309358597,0
208030,-0.342228621244431,0
208140,-0.341814309358597,0
208250,-0.34160715341568,0
208360,-0.341814309358597,0
208470,-0.341399997472763,0
208580,-0.341814309358597,0
208690,-0.341814309358597,0
208800,-0.339949876070023,0
208910,-0.341192841529846,0
209020,-0.341192841529846,0
209120,-0.34160715341568,0
209230,-0.340985685586929,0
209340,-0.341814309358597,0
209450,-0.341192841529846,0
209560,-0.34077849984169,0
209670,-0.340571343898773,0
209780,-0.34160715341568,0
209890,-0.34160715341568,0
210000,-0.341192841529846,0
210110,-0.340985685586929,0
210220,-0.342021465301514,0
210330,-0.34160715341568,0
210430,-0.340985685586929,0
210540,-0.341192841529846,0
210650,-0.340571343898773,0
210760,-0.34160715341568,0
210870,-0.341814309358597,0
210980,-0.34160715341568,0
211090,-0.34160715341568,0
211200,-0.341192841529846,0
211310,-0.341192841529846,0
211420,-0.341814309358597,0
211530,-0.341399997472763,0
211640,-0.342642962932587,0
211750,-0.341192841529846,0
211850,-0.340985685586929,0
211960,-0.34243580698967,0
212070,-0.341192841529846,0
212180,-0.341399997472763,0
212290,-0.340985685586929,0
212400,-0.341399997472763,0
212510,-0.341399997472763,0
212620,-0.34077849984169,0
212730,-0.340571343898773,0
212840,-0.341192841529846,0
212950,-0.341814309358597,0
213060,-0.341399997472763,0
213160,-0.341192841529846,0
213270,-0.34160715341568,0
213380,-0.341192841529846,0
213490,-0.342228621244431,0
213600,-0.34077849984169,0
213710,-0.340985685586929,0
213820,-0.341814309358597,0
213930,-0.34160715341568,0
214040,-0.340157032012939,0
214150,-0.341399997472763,0
214260,-0.341399997472763,0
214370,-0.341814309358597,0
214480,-0.339949876070023,0
214580,-0.340985685586929,0
214690,-0.341192841529846,0
214800,-0.340571343898773,0
214910,-0.342021465301514,0
215020,-0.342228621244431,0
215130,-0.342021465301514,0
215240,-0.34243580698967,0
215350,-0.341399997472763,0
215460,-0.339949876070023,0
215570,-0.341399997472763,0
215680,-0.341814309358597,0
215790,-0.340571343898773,0
215890,-0.340985685586929,0
216000,-0.340571343898773,0
216110,-0.341192841529846,0
216220,-0.341192841529846,0
216330,-0.341192841529846,0
216440,-0.34160715341568,0
216550,-0.341399997472763,0
216660,-0.340985685586929,0
216770,-0.34160715341568,0
216880,-0.341399997472763,0
216990,-0.340364187955856,0
217100,-0.342228621244431,0
217210,-0.342021465301514,0
217310,-0.341192841529846,0
217420,-0.341192841529846,0
217530,-0.340571343898773,0
217640,-0.341399997472763,0
217750,-0.340571343898773,0
217860,-0.34077849984169,0
217970,-0.34160715341568,0
218080,-0.342228621244431,0
218190,-0.341192841529846,0
218300,-0.341814309358597,0
218410,-0.340985685586929,0
218520,-0.34077849984169,0
218620,-0.34077849984169,0
218730,-0.34160715341568,0
218840,-0.342228621244431,0
218950,-0.34077849984169,0
219060,-0.340364187955856,0
219170,-0.340364187955856,0
219280,-0.34077849984169,0
219390,-0.341192841529846,0
219500,-0.342642962932587,0
219610,-0.34077849984169,0
219720,-0.340571343898773,0
219830,-0.341399997472763,0
219940,-0.341399997472763,0
220040,-0.34160715341568,0
220150,-0.342228621244431,0
220260,-0.34077849984169,0
220370,-0.341192841529846,0
220480,-0.341192841529846,0
220590,-0.341399997472763,0
220700,-0.340157032012939,0
220810,-0.340571343898773,0
220920,-0.340985685586929,0
221030,-0.341399997472763,0
221140,-0.342228621244431,0
221250,-0.341814309358597,0
221350,-0.341192841529846,0
221460,-0.341399997472763,0
221570,-0.34160715341568,0
221680,-0.341192841529846,0
221790,-0.340985685586929,0
221900,-0.340985685586929,0
222010,-0.341192841529846,0
222120,-0.34160715341568,0
222230,-0.340571343898773,0
222340,-0.341399997472763,0
222450,-0.341192841529846,0
222560,-0.340985685586929,0
222670,-0.34077849984169,0
222770,-0.342228621244431,0
222880,-0.341192841529846,0
222990,-0.342642962932587,0
223100,-0.34160715341568,0
223210,-0.340364187955856,0
223320,-0.341814309358597,0
223430,-0.341192841529846,0
223540,-0.340157032012939,0
223650,-0.341399997472763,0
223760,-0.341814309358597,0
223870,-0.34160715341568,0
223980,-0.341192841529846,0
224080,-0.339949876070023,0
224190,-0.34077849984169,0
224300,-0.340985685586929,0
224410,-0.34243580698967,0
224520,-0.34077849984169,0
224630,-0.340985685586929,0
224740,-0.342021465301514,0
224850,-0.34077849984169,0
224960,-0.340985685586929,0
225070,-0.34160715341568,0
225180,-0.340364187955856,0
225290,-0.340985685586929,0
225400,-0.34160715341568,0
225500,-0.34160715341568,0
225610,-0.341399997472763,0
225720,-0.342021465301514,0
225830,-0.34160715341568,0
225940,-0.34160715341568,0
226050,-0.341192841529846,0
226160,-0.341192841529846,0
226270,-0.340364187955856,0
226380,-0.340571343898773,0
226490,-0.342021465301514,0
226600,-0.340985685586929,0
226710,-0.34160715341568,0
226810,-0.34077849984169,0
226920,-0.340985685586929,0
227030,-0.340364187955856,0
227140,-0.341192841529846,0
227250,-0.34160715341568,0
227360,-0.340571343898773,0
227470,-0.34160715341568,0
227580,-0.34160715341568,0
227690,-0.339949876070023,0
227800,-0.340571343898773,0
227910,-0.341399997472763,0
228020,-0.341814309358597,0
228130,-0.339949876070023,0
228230,-0.341814309358597,0
228340,-0.342228621244431,0
228450,-0.341192841529846,0
228560,-0.341192841529846,0
228670,-0.340571343898773,0
228780,-0.341192841529846,0
228890,-0.341814309358597,0
229000,-0.341192841529846,0
229110,-0.34160715341568,0
229220,-0.341399997472763,0
229330,-0.341399997472763,0
229440,-0.34160715341568,0
229540,-0.341192841529846,0
229650,-0.340985685586929,0
229760,-0.340985685586929,0
229870,-0.34160715341568,0
229980,-0.342228621244431,0
230090,-0.34243580698967,0
230200,-0.34077849984169,0
230310,-0.34077849984169,0
230420,-0.340985685586929,0
230530,-0.341192841529846,0
230640,-0.342228621244431,0
230750,-0.340985685586929,0
230860,-0.340571343898773,0
230960,-0.341399997472763,0
231070,-0.341399997472763,0
231180,-0.340985685586929,0
231290,-0.34160715341568,0
231400,-0.342021465301514,0
231510,-0.342021465301514,0
231620,-0.342850118875504,0
231730,-0.341814309358597,0
231840,-0.341399997472763,0
231950,-0.340364187955856,0
232060,-0.342021465301514,0
232170,-0.34077849984169,0
232270,-0.340157032012939,0
232380,-0.341192841529846,0
232490,-0.34160715341568,0
232600,-0.340985685586929,0
232710,-0.34160715341568,0
232820,-0.340157032012939,0
232930,-0.341814309358597,0
233040,-0.341192841529846,0
233150,-0.342021465301514,0
233260,-0.341814309358597,0
233370,-0.340571343898773,0
233480,-0.342228621244431,0
233590,-0.34077849984169,0
233690,-0.339949876070023,0
233800,-0.34160715341568,0
233910,-0.341399997472763,0
234020,-0.341814309358597,0
234130,-0.34243580698967,0
234240,-0.342642962932587,0
234350,-0.342228621244431,0
234460,-0.340985685586929,0
234570,-0.340985685586929,0
234680,-0.341399997472763,0
234790,-0.341399997472763,0
234900,-0.342642962932587,0
235000,-0.340571343898773,0
235110,-0.342228621244431,0
235220,-0.341814309358597,0
235330,-0.340364187955856,0
235440,-0.340364187955856,0
235550,-0.34077849984169,0
235660,-0.341814309358597,0
235770,-0.341814309358597,0
235880,-0.34243580698967,0
235990,-0.341399997472763,0
236100,-0.342021465301514,0
236210,-0.340364187955856,0
236320,-0.341192841529846,0
236420,-0.34160715341568,0
236530,-0.340985685586929,0
236640,-0.341814309358597,0
236750,-0.339535564184189,0
236860,-0.341814309358597,0
236970,-0.341192841529846,0
237080,-0.342021465301514,0
237190,-0.341399997472763,0
237300,-0.340985685586929,0
237410,-0.342850118875504,0
237520,-0.341399997472763,0
237630,-0.34077849984169,0
237730,-0.340571343898773,0
237840,-0.340985685586929,0
237950,-0.34077849984169,0
238060,-0.340571343898773,0
238170,-0.342228621244431,0
238280,-0.341399997472763,0
238390,-0.340985685586929,0
238500,-0.341814309358597,0
238610,-0.341192841529846,0
238720,-0.342228621244431,0
238830,-0.341814309358597,0
238940,-0.341399997472763,0
239050,-0.340985685586929,0
239150,-0.341192841529846,0
239260,-0.341399997472763,0
239370,-0.341192841529846,0
239480,-0.34160715341568,0
239590,-0.34160715341568,0
239700,-0.340985685586929,0
239810,-0.342228621244431,0
239920,-0.341814309358597,0
240030,-0.342021465301514,0
240140,-0.340985685586929,0
240250,-0.340985685586929,0
240360,-0.341814309358597,0
240460,-0.340157032012939,0
240570,-0.340985685586929,0
240680,-0.341192841529846,0
240790,-0.342228621244431,0
240900,-0.340985685586929,0
241010,-0.340157032012939,0
241120,-0.341814309358597,0
241230,-0.340571343898773,0
241340,-0.340985685586929,0
241450,-0.339949876070023,0
241560,-0.34160715341568,0
241670,-0.341814309358597,0
241780,-0.342228621244431,0
241880,-0.340985685586929,0
241990,-0.341814309358597,0
242100,-0.340985685586929,0
242210,-0.341399997472763,0
242320,-0.34243580698967,0
242430,-0.340985685586929,0
242540,-0.341399997472763,0
242650,-0.340364187955856,0
242760,-0.34077849984169,0
242870,-0.341192841529846,0
242980,-0.341399997472763,0
243090,-0.34160715341568,0
243190,-0.341814309358597,0
243300,-0.340985685586929,0
243410,-0.341399997472763,0
243520,-0.34077849984169,0
243630,-0.34243580698967,0
243740,-0.341814309358597,0
243850,-0.341399997472763,0
243960,-0.340571343898773,0
244070,-0.342642962932587,0
244180,-0.340571343898773,0
244290,-0.34243580698967,0
244400,-0.341399997472763,0
244510,-0.339742720127106,0
244610,-0.339949876070023,0
244720,-0.340985685586929,0
244830,-0.341192841529846,0
244940,-0.341814309358597,0
245050,-0.340985685586929,0
245160,-0.341399997472763,0
245270,-0.341192841529846,0
245380,-0.341399997472763,0
245490,-0.340157032012939,0
245600,-0.341399997472763,0
245710,-0.34077849984169,0
245820,-0.341814309358597,0
245920,-0.340571343898773,0
246030,-0.34160715341568,0
246140,-0.342228621244431,0
246250,-0.342642962932587,0
246360,-0.342228621244431,0
246470,-0.34160715341568,0
246580,-0.341814309358597,0
246690,-0.34160715341568,0
246800,-0.341399997472763,0
246910,-0.341814309358597,0
247020,-0.340364187955856,0
247130,-0.342228621244431,0
247240,-0.341399997472763,0
247340,-0.34077849984169,0
247450,-0.340364187955856,0
247560,-0.34160715341568,0
247670,-0.34243580698967,0
247780,-0.341814309358597,0
247890,-0.342228621244431,0
248000,-0.341192841529846,0
248110,-0.341814309358597,0
248220,-0.340985685586929,0
248330,-0.342228621244431,0
248440,-0.342021465301514,0
248550,-0.34077849984169,0
248650,-0.341192841529846,0
248760,-0.341192841529846,0
248870,-0.342021465301514,0
248980,-0.34160715341568,0
249090,-0.34243580698967,0
249200,-0.342228621244431,0
249310,-0.340985685586929,0
249420,-0.342642962932587,0
249530,-0.340985685586929,0
249640,-0.34160715341568,0
249750,-0.34077849984169,0
249860,-0.340364187955856,0
249970,-0.341399997472763,0
250070,-0.342021465301514,0
250180,-0.341814309358597,0
250290,-0.341192841529846,0
250400,-0.341399997472763,0
250510,-0.341814309358597,0
250620,-0.342228621244431,0
250730,-0.341192841529846,0
250840,-0.34160715341568,0
250950,-0.340364187955856,0
251060,-0.341192841529846,0
251170,-0.341399997472763,0
251280,-0.341399997472763,0
251380,-0.341192841529846,0
251490,-0.34077849984169,0
251600,-0.341814309358597,0
251710,-0.34077849984169,0
251820,-0.340985685586929,0
251930,-0.341192841529846,0
252040,-0.340985685586929,0
252150,-0.340364187955856,0
252260,-0.34077849984169,0
252370,-0.341192841529846,0
252480,-0.341814309358597,0
252590,-0.34160715341568,0
252700,-0.341399997472763,0
252800,-0.341399997472763,0
252910,-0.340985685586929,0
253020,-0.34160715341568,0
253130,-0.341192841529846,0
253240,-0.342228621244431,0
253350,-0.341814309358597,0
253460,-0.340985685586929,0
253570,-0.341399997472763,0
253680,-0.340985685586929,0
253790,-0.341192841529846,0
253900,-0.34243580698967,0
254010,-0.341399997472763,0
254110,-0.342021465301514,0
254220,-0.34160715341568,0
254330,-0.341814309358597,0
254440,-0.341814309358597,0
254550,-0.340985685586929,0
254660,-0.341814309358597,0
254770,-0.340157032012939,0
254880,-0.340985685586929,0
254990,-0.341814309358597,0
255100,-0.34077849984169,0
255210,-0.34077849984169,0
255320,-0.340985685586929,0
255430,-0.341399997472763,0
255530,-0.34077849984169,0
255640,-0.34077849984169,0
255750,-0.343264430761337,0
255860,-0.34160715341568,0
255970,-0.34160715341568,0
256080,-0.341399997472763,0
256190,-0.342021465301514,0
256300,-0.34160715341568,0
256410,-0.34160715341568,0
256520,-0.341399997472763,0
256630,-0.341814309358597,0
256740,-0.341399997472763,0
256840,-0.342021465301514,0
256950,-0.34077849984169,0
257060,-0.340571343898773,0
257170,-0.340985685586929,0
257280,-0.341399997472763,0
257390,-0.342021465301514,0
257500,-0.342021465301514,0
257610,-0.34160715341568,0
257720,-0.341814309358597,0
257830,-0.342228621244431,0
257940,-0.34160715341568,0
258050,-0.34077849984169,0
258160,-0.340985685586929,0
258260,-0.341814309358597,0
258370,-0.341192841529846,0
258480,-0.342021465301514,0
258590,-0.340985685586929,0
258700,-0.340985685586929,0
258810,-0.342021465301514,0
258920,-0.34160715341568,0
259030,-0.341814309358597,0
259140,-0.34077849984169,0
259250,-0.341192841529846,0
259360,-0.34160715341568,0
259470,-0.341192841529846,0
259580,-0.340571343898773,0
259680,-0.342228621244431,0
259790,-0.341399997472763,0
259900,-0.341192841529846,0
260010,-0.342228621244431,0
260120,-0.34243580698967,0
260230,-0.342228621244431,0
260340,-0.341192841529846,0
260450,-0.339949876070023,0
260560,-0.34160715341568,0
260670,-0.34077849984169,0
260780,-0.342228621244431,0
260890,-0.34077849984169,0
260990,-0.342021465301514,0
261100,-0.342850118875504,0
261210,-0.341399997472763,0
261320,-0.342021465301514,0
261430,-0.34077849984169,0
261540,-0.34160715341568,0
261650,-0.342228621244431,0
261760,-0.341399997472763,0
261870,-0.342021465301514,0
261980,-0.34077849984169,0
262090,-0.340985685586929,0
262200,-0.34243580698967,0
262310,-0.341192841529846,0
262410,-0.339535564184189,0
262520,-0.342228621244431,0
262630,-0.341814309358597,0
262740,-0.34077849984169,0
262850,-0.34160715341568,0
262960,-0.34077849984169,0
263070,-0.341814309358597,0
263180,-0.340571343898773,0
263290,-0.341814309358597,0
263400,-0.34160715341568,0
263510,-0.34160715341568,0
263620,-0.340571343898773,0
263720,-0.340571343898773,0
263830,-0.34077849984169,0
263940,-0.34077849984169,0
264050,-0.341192841529846,0
264160,-0.341814309358597,0
264270,-0.34077849984169,0
264380,-0.34243580698967,0
264490,-0.34077849984169,0
264600,-0.34160715341568,0
264710,-0.340985685586929,0
264820,-0.340571343898773,0
264930,-0.340985685586929,0
265040,-0.341192841529846,0
265140,-0.340364187955856,0
265250,-0.341192841529846,0
265360,-0.341399997472763,0
265470,-0.34160715341568,0
265580,-0.34077849984169,0
265690,-0.341399997472763,0
265800,-0.34160715341568,0
265910,-0.342021465301514,0
266020,-0.340985685586929,0
266130,-0.341814309358597,0
266240,-0.341399997472763,0
266350,-0.341814309358597,0
266450,-0.34243580698967,0
266560,-0.340571343898773,0
266670,-0.341814309358597,0
266780,-0.341399997472763,0
266890,-0.341399997472763,0
267000,-0.34077849984169,0
267110,-0.34160715341568,0
267220,-0.342228621244431,0
267330,-0.34160715341568,0
267440,-0.342021465301514,0
267550,-0.34077849984169,0
267660,-0.340157032012939,0
267770,-0.34077849984169,0
267870,-0.34160715341568,0
267980,-0.34077849984169,0
268090,-0.340985685586929,0
268200,-0.340985685586929,0
268310,-0.34160715341568,0
268420,-0.341399997472763,0
268530,-0.340364187955856,0
268640,-0.341814309358597,0
268750,-0.34243580698967,0
268860,-0.34077849984169,0
268970,-0.342642962932587,0
269080,-0.341399997472763,0
269180,-0.339949876070023,0
269290,-0.341192841529846,0
269400,-0.340985685586929,0
269510,-0.341814309358597,0
269620,-0.341814309358597,0
269730,-0.341399997472763,0
269840,-0.34243580698967,0
269950,-0.339949876070023,0
270060,-0.341814309358597,0
270170,-0.34160715341568,0
270280,-0.342021465301514,0
270390,-0.341192841529846,0
270500,-0.341399997472763,0
270600,-0.341192841529846,0
270710,-0.34160715341568,0
270820,-0.340985685586929,0
270930,-0.341814309358597,0
271040,-0.340985685586929,0
271150,-0.340571343898773,0
271260,-0.341192841529846,0
271370,-0.341399997472763,0
271480,-0.340571343898773,0
271590,-0.340571343898773,0
271700,-0.34243580698967,0
271810,-0.341192841529846,0
271910,-0.340571343898773,0
272020,-0.34160715341568,0
272130,-0.34077849984169,0
272240,-0.340985685586929,0
272350,-0.34077849984169,0
272460,-0.341399997472763,0
272570,-0.342021465301514,0
272680,-0.341814309358597,0
272790,-0.341192841529846,0
272900,-0.341399997472763,0
273010,-0.34077849984169,0
273120,-0.341814309358597,0
273230,-0.342228621244431,0
273330,-0.342021465301514,0
273440,-0.341814309358597,0
273550,-0.340985685586929,0
273660,-0.341192841529846,0
273770,-0.340985685586929,0
273880,-0.340571343898773,0
273990,-0.34077849984169,0
274100,-0.341399997472763,0
274210,-0.342021465301514,0
274320,-0.341814309358597,0
274430,-0.341814309358597,0
274540,-0.34160715341568,0
274640,-0.340985685586929,0
274750,-0.342642962932587,0
274860,-0.340985685586929,0
274970,-0.34160715341568,0
275080,-0.341814309358597,0
275190,-0.342228621244431,0
275300,-0.341192841529846,0
275410,-0.340985685586929,0
275520,-0.34160715341568,0
275630,-0.340985685586929,0
275740,-0.34077849984169,0
275850,-0.341814309358597,0
275960,-0.342642962932587,0
276060,-0.34160715341568,0
276170,-0.34243580698967,0
276280,-0.340364187955856,0
276390,-0.341192841529846,0
276500,-0.34243580698967,0
276610,-0.341814309358597,0
276720,-0.342021465301514,0
276830,-0.341399997472763,0
276940,-0.34160715341568,0
277050,-0.34077849984169,0
277160,-0.34077849984169,0
277270,-0.34160715341568,0
277370,-0.342228621244431,0
277480,-0.341192841529846,0
277590,-0.341814309358597,0
277700,-0.34160715341568,0
277810,-0.341192841529846,0
277920,-0.342228621244431,0
278030,-0.340571343898773,0
278140,-0.342021465301514,0
278250,-0.340571343898773,0
278360,-0.342021465301514,0
278470,-0.341399997472763,0
278580,-0.341192841529846,0
278690,-0.341192841529846,0
278790,-0.341814309358597,0
278900,-0.34160715341568,0
279010,-0.341192841529846,0
279120,-0.34160715341568,0
279230,-0.341192841529846,0
279340,-0.341399997472763,0
279450,-0.342850118875504,0
279560,-0.341399997472763,0
279670,-0.34243580698967,0
279780,-0.340985685586929,0
279890,-0.34160715341568,0
280000,-0.341192841529846,0
280100,-0.341399997472763,0
280210,-0.341399997472763,0
280320,-0.340985685586929,0
280430,-0.341814309358597,0
280540,-0.34160715341568,0
280650,-0.341399997472763,0
280760,-0.341814309358597,0
280870,-0.342021465301514,0
280980,-0.341399997472763,0
281090,-0.342228621244431,0
281200,-0.340985685586929,0
281310,-0.34077849984169,0
281420,-0.342228621244431,0
281520,-0.341399997472763,0
281630,-0.340985685586929,0
281740,-0.342228621244431,0
281850,-0.34077849984169,0
281960,-0.342228621244431,0
282070,-0.34160715341568,0
282180,-0.341192841529846,0
282290,-0.340985685586929,0
282400,-0.342228621244431,0
282510,-0.341192841529846,0
282620,-0.341399997472763,0
282730,-0.341814309358597,0
282830,-0.341814309358597,0
282940,-0.34160715341568,0
283050,-0.341399997472763,0
283160,-0.341192841529846,0
283270,-0.340364187955856,0
283380,-0.340157032012939,0
283490,-0.340985685586929,0
283600,-0.34160715341568,0
283710,-0.34160715341568,0
283820,-0.342228621244431,0
283930,-0.340985685586929,0
284040,-0.34077849984169,0
284150,-0.34160715341568,0
284250,-0.341399997472763,0
284360,-0.340364187955856,0
284470,-0.34160715341568,0
284580,-0.341399997472763,0
284690,-0.342021465301514,0
284800,-0.342021465301514,0
284910,-0.340571343898773,0
285020,-0.342021465301514,0
285130,-0.34077849984169,0
285240,-0.341814309358597,0
285350,-0.341814309358597,0
285460,-0.342021465301514,0
285560,-0.339949876070023,0
285670,-0.342228621244431,0
285780,-0.341399997472763,0
285890,-0.341399997472763,0
286000,-0.34160715341568,0
286110,-0.34160715341568,0
286220,-0.34243580698967,0
286330,-0.342228621244431,0
286440,-0.340157032012939,0
286550,-0.34077849984169,0
286660,-0.34077849984169,0
286770,-0.341814309358597,0
286880,-0.34077849984169,0
286980,-0.34160715341568,0
287090,-0.341814309358597,0
287200,-0.340985685586929,0
287310,-0.340571343898773,0
287420,-0.341192841529846,0
287530,-0.34160715341568,0
287640,-0.342228621244431,0
287750,-0.341814309358597,0
287860,-0.34160715341568,0
287970,-0.341814309358597,0
288080,-0.341814309358597,0
288190,-0.341192841529846,0
288290,-0.34160715341568,0
288400,-0.341399997472763,0
288510,-0.341399997472763,0
288620,-0.34243580698967,0
288730,-0.341814309358597,0
288840,-0.340157032012939,0
288950,-0.341399997472763,0
289060,-0.342642962932587,0
289170,-0.343264430761337,0
289280,-0.33932837843895,0
289390,-0.342021465301514,0
289500,-0.341192841529846,0
289610,-0.340985685586929,0
289710,-0.341814309358597,0
289820,-0.340157032012939,0
289930,-0.34160715341568,0
290040,-0.341399997472763,0
290150,-0.340571343898773,0
290260,-0.341814309358597,0
290370,-0.342021465301514,0
290480,-0.342228621244431,0
290590,-0.340571343898773,0
290700,-0.341192841529846,0
290810,-0.340571343898773,0
290920,-0.341399997472763,0
291020,-0.34243580698967,0
291130,-0.341814309358597,0
291240,-0.341399997472763,0
291350,-0.341814309358597,0
291460,-0.34160715341568,0
291570,-0.341192841529846,0
291680,-0.342021465301514,0
291790,-0.341399997472763,0
291900,-0.341192841529846,0
292010,-0.341399997472763,0
292120,-0.341192841529846,0
292230,-0.34160715341568,0
292340,-0.341814309358597,0
292440,-0.342021465301514,0
292550,-0.340985685586929,0
292660,-0.34160715341568,0
292770,-0.340571343898773,0
292880,-0.342021465301514,0
292990,-0.340985685586929,0
293100,-0.340985685586929,0
293210,-0.340364187955856,0
293320,-0.34077849984169,0
293430,-0.341814309358597,0
293540,-0.341192841529846,0
293650,-0.341399997472763,0
293750,-0.34160715341568,0
293860,-0.341814309358597,0
293970,-0.34160715341568,0
294080,-0.342228621244431,0
294190,-0.34243580698967,0
294300,-0.340157032012939,0
294410,-0.341399997472763,0
294520,-0.341192841529846,0
294630,-0.341814309358597,0
294740,-0.341399997472763,0
294850,-0.340364187955856,0
294960,-0.34160715341568,0
295070,-0.34160715341568,0
295170,-0.341814309358597,0
295280,-0.342021465301514,0
295390,-0.341399997472763,0
295500,-0.339949876070023,0
295610,-0.341399997472763,0
295720,-0.34160715341568,0
295830,-0.34160715341568,0
295940,-0.341814309358597,0
296050,-0.340571343898773,0
296160,-0.340157032012939,0
296270,-0.341399997472763,0
296380,-0.34243580698967,0
296480,-0.340571343898773,0
296590,-0.341192841529846,0
296700,-0.339949876070023,0
296810,-0.340985685586929,0
296920,-0.341192841529846,0
297030,-0.339742720127106,0
297140,-0.34160715341568,0
297250,-0.34243580698967,0
297360,-0.340985685586929,0
297470,-0.341814309358597,0
297580,-0.341814309358597,0
297690,-0.341814309358597,0
297800,-0.340985685586929,0
297900,-0.342021465301514,0
298010,-0.34077849984169,0
298120,-0.342228621244431,0
298230,-0.34160715341568,0
298340,-0.34160715341568,0
298450,-0.340985685586929,0
298560,-0.340364187955856,0
298670,-0.342021465301514,0
298780,-0.340985685586929,0
298890,-0.340157032012939,0
299000,-0.341399997472763,0
299110,-0.342228621244431,0
299210,-0.341399997472763,0
299320,-0.342021465301514,0
299430,-0.341814309358597,0
299540,-0.340571343898773,0
299650,-0.341399997472763,0
299760,-0.340985685586929,0
299880,-0.34160715341568,0
299980,-0.341192841529846,0
300090,-0.341814309358597,0
300200,-0.340571343898773,0
300310,-0.340985685586929,0
300420,-0.341192841529846,0
300530,-0.340157032012939,0
300630,-0.341814309358597,0
300740,-0.341399997472763,0
300850,-0.340571343898773,0
300960,-0.341192841529846,0
301070,-0.34077849984169,0
301180,-0.342642962932587,0
301290,-0.341192841529846,0
301400,-0.34160715341568,0
301510,-0.341399997472763,0
301620,-0.340985685586929,0
301730,-0.341399997472763,0
301840,-0.34160715341568,0
301940,-0.342021465301514,0
302050,-0.341192841529846,0
302160,-0.34160715341568,0
302270,-0.34243580698967,0
302380,-0.34160715341568,0
302490,-0.34077849984169,0
302600,-0.341192841529846,0
302710,-0.341814309358597,0
302820,-0.341814309358597,0
302930,-0.34160715341568,0
303040,-0.340571343898773,0
303150,-0.342021465301514,0
303260,-0.340985685586929,0
303360,-0.340985685586929,0
303470,-0.341399997472763,0
303580,-0.340571343898773,0
303690,-0.342021465301514,0
303800,-0.34243580698967,0
303910,-0.342642962932587,0
304020,-0.34243580698967,0
304130,-0.341399997472763,0
304240,-0.34160715341568,0
304350,-0.340364187955856,0
304460,-0.341192841529846,0
304570,-0.342642962932587,0
304670,-0.341192841529846,0
304780,-0.342021465301514,0
304890,-0.34077849984169,0
305000,-0.340985685586929,0
305110,-0.340571343898773,0
305220,-0.342850118875504,0
305330,-0.34077849984169,0
305440,-0.341814309358597,0
305550,-0.342021465301514,0
305660,-0.341192841529846,0
305770,-0.341192841529846,0
305880,-0.342021465301514,0
305990,-0.341399997472763,0
306090,-0.342228621244431,0
306200,-0.340985685586929,0
306310,-0.34160715341568,0
306420,-0.340571343898773,0
306530,-0.341399997472763,0
306640,-0.341814309358597,0
306750,-0.341192841529846,0
306860,-0.342228621244431,0
306970,-0.341192841529846,0
307080,-0.341814309358597,0
307190,-0.34160715341568,0
307300,-0.340985685586929,0
307400,-0.340571343898773,0
307510,-0.34243580698967,0
307620,-0.340571343898773,0
307730,-0.34160715341568,0
307840,-0.340571343898773,0
307950,-0.34160715341568,0
308060,-0.34077849984169,0
308170,-0.34160715341568,0
308280,-0.341814309358597,0
308390,-0.341192841529846,0
308500,-0.34243580698967,0
308610,-0.341399997472763,0
308720,-0.341814309358597,0
308820,-0.340985685586929,0
308930,-0.34160715341568,0
309040,-0.34243580698967,0
309150,-0.341192841529846,0
309260,-0.34160715341568,0
309370,-0.340571343898773,0
309480,-0.341814309358597,0
309590,-0.340364187955856,0
309700,-0.341399997472763,0
309810,-0.341814309358597,0
309920,-0.34160715341568,0
310030,-0.34077849984169,0
310130,-0.340571343898773,0
310240,-0.341192841529846,0
310350,-0.34160715341568,0
310460,-0.340571343898773,0
310570,-0.343264430761337,0
310680,-0.341399997472763,0
310790,-0.341192841529846,0
310900,-0.34243580698967,0
311010,-0.341192841529846,0
311120,-0.340985685586929,0
311230,-0.340985685586929,0
311340,-0.34160715341568,0
311450,-0.341399997472763,0
311550,-0.34160715341568,0
311660,-0.341192841529846,0
311770,-0.34160715341568,0
311880,-0.340364187955856,0
311990,-0.34077849984169,0
312100,-0.341192841529846,0
312210,-0.34077849984169,0
312320,-0.340985685586929,0
312430,-0.340985685586929,0
312540,-0.34160715341568,0
312650,-0.342228621244431,0
312760,-0.340985685586929,0
312860,-0.341399997472763,0
312970,-0.340985685586929,0
313080,-0.341814309358597,0
313190,-0.342228621244431,0
313300,-0.34160715341568,0
313410,-0.342021465301514,0
313520,-0.341399997472763,0
313630,-0.341399997472763,0
313740,-0.342228621244431,0
313850,-0.341399997472763,0
313960,-0.340985685586929,0
314070,-0.34160715341568,0
314180,-0.34160715341568,0
314280,-0.341814309358597,0
314390,-0.342021465301514,0
314500,-0.342642962932587,0
314610,-0.341399997472763,0
314720,-0.34077849984169,0
314830,-0.34243580698967,0
314940,-0.341399997472763,0
315050,-0.341399997472763,0
315160,-0.34160715341568,0
315270,-0.34077849984169,0
315380,-0.34160715341568,0
315490,-0.341192841529846,0
315590,-0.341814309358597,0
315700,-0.34160715341568,0
315810,-0.34160715341568,0
315920,-0.342021465301514,0
316030,-0.34305727481842,0
316140,-0.342228621244431,0
316250,-0.341399997472763,0
316360,-0.342850118875504,0
316470,-0.34160715341568,0
316580,-0.341192841529846,0
316690,-0.34160715341568,0
316800,-0.34077849984169,0
316910,-0.340985685586929,0
317010,-0.342642962932587,0
317120,-0.342021465301514,0
317230,-0.342228621244431,0
317340,-0.34305727481842,0
317450,-0.340985685586929,0
317560,-0.34243580698967,0
317670,-0.340985685586929,0
317780,-0.34160715341568,0
317890,-0.34077849984169,0
318000,-0.342021465301514,0
318110,-0.340985685586929,0
318220,-0.340157032012939,0
318320,-0.341192841529846,0
318430,-0.341399997472763,0
318540,-0.342021465301514,0
318650,-0.341814309358597,0
318760,-0.340571343898773,0
318870,-0.342228621244431,0
318980,-0.342228621244431,0
319090,-0.341192841529846,0
319200,-0.34077849984169,0
319310,-0.341399997472763,0
319420,-0.341399997472763,0
319530,-0.342021465301514,0
319640,-0.34160715341568,0
319740,-0.341192841529846,0
319850,-0.341814309358597,0
319960,-0.34160715341568,0
320070,-0.340985685586929,0
320180,-0.34160715341568,0
320290,-0.34160715341568,0
320400,-0.340571343898773,0
320510,-0.341399997472763,0
320620,-0.34160715341568,0
320730,-0.34160715341568,0
320840,-0.342228621244431,0
320950,-0.342021465301514,0
321050,-0.341399997472763,0
321160,-0.34160715341568,0
321270,-0.340364187955856,0
321380,-0.342228621244431,0
321490,-0.342228621244431,0
321600,-0.341192841529846,0
321710,-0.34160715341568,0
321820,-0.339742720127106,0
321930,-0.341814309358597,0
322040,-0.34160715341568,0
322150,-0.342021465301514,0
322260,-0.342021465301514,0
322370,-0.342228621244431,0
322470,-0.342642962932587,0
322580,-0.341399997472763,0
322690,-0.341399997472763,0
322800,-0.341399997472763,0
322910,-0.342021465301514,0
323020,-0.34160715341568,0
323130,-0.341814309358597,0
323240,-0.342850118875504,0
323350,-0.34160715341568,0
323460,-0.341814309358597,0
323570,-0.342021465301514,0
323680,-0.341814309358597,0
323780,-0.34160715341568,0
323890,-0.34160715341568,0
324000,-0.341399997472763,0
324110,-0.34077849984169,0
324220,-0.340985685586929,0
324330,-0.34160715341568,0
324440,-0.34160715341568,0
324550,-0.34160715341568,0
324660,-0.34305727481842,0
324770,-0.341814309358597,0
324880,-0.342228621244431,0
324990,-0.34160715341568,0
325100,-0.340364187955856,0
325200,-0.340571343898773,0
325310,-0.341399997472763,0
325420,-0.34305727481842,0
325530,-0.342021465301514,0
325640,-0.34160715341568,0
325750,-0.34160715341568,0
325860,-0.341399997472763,0
325970,-0.342021465301514,0
326080,-0.342021465301514,0
326190,-0.340985685586929,0
326300,-0.341192841529846,0
326410,-0.34243580698967,0
326510,-0.34160715341568,0
326620,-0.341192841529846,0
326730,-0.341192841529846,0
326840,-0.34160715341568,0
326950,-0.341192841529846,0
327060,-0.339742720127106,0
327170,-0.341192841529846,0
327280,-0.34243580698967,0
327390,-0.339742720127106,0
327500,-0.341399997472763,0
327610,-0.340985685586929,0
327720,-0.342642962932587,0
327830,-0.341399997472763,0
327930,-0.341192841529846,0
328040,-0.340157032012939,0
328150,-0.341814309358597,0
328260,-0.342021465301514,0
328370,-0.341814309358597,0
328480,-0.341399997472763,0
328590,-0.341814309358597,0
328700,-0.341399997472763,0
328810,-0.340985685586929,0
328920,-0.340571343898773,0
329030,-0.340985685586929,0
329140,-0.341192841529846,0
329240,-0.341192841529846,0
329350,-0.342228621244431,0
329460,-0.341814309358597,0
329570,-0.341814309358597,0
329680,-0.34160715341568,0
329790,-0.340364187955856,0
329900,-0.341814309358597,0
330010,-0.342021465301514,0
330120,-0.341814309358597,0
330230,-0.34160715341568,0
330340,-0.34243580698967,0
330450,-0.34160715341568,0
330560,-0.341192841529846,0
330660,-0.341192841529846,0
330770,-0.341192841529846,0
330880,-0.342021465301514,0
330990,-0.340157032012939,0
331100,-0.341814309358597,0
331210,-0.34243580698967,0
331320,-0.34077849984169,0
331430,-0.341399997472763,0
331540,-0.34077849984169,0
331650,-0.34243580698967,0
331760,-0.341399997472763,0
331870,-0.341399997472763,0
331970,-0.340985685586929,0
332080,-0.34243580698967,0
332190,-0.341192841529846,0
332300,-0.34160715341568,0
332410,-0.341192841529846,0
332520,-0.342021465301514,0
332630,-0.341192841529846,0
332740,-0.342228621244431,0
332850,-0.341814309358597,0
332960,-0.340571343898773,0
333070,-0.34160715341568,0
333180,-0.34077849984169,0
333290,-0.34243580698967,0
333390,-0.341399997472763,0
333500,-0.341192841529846,0
333610,-0.342021465301514,0
333720,-0.341399997472763,0
333830,-0.341814309358597,0
333940,-0.34160715341568,0
334050,-0.342021465301514,0
334160,-0.34160715341568,0
334270,-0.34077849984169,0
334380,-0.341814309358597,0
334490,-0.34077849984169,0
334600,-0.341192841529846,0
334700,-0.34160715341568,0
334810,-0.340985685586929,0
334920,-0.341814309358597,0
335030,-0.34160715341568,0
335140,-0.341192841529846,0
335250,-0.34160715341568,0
335360,-0.340364187955856,0
335470,-0.34077849984169,0
335580,-0.341814309358597,0
335690,-0.342021465301514,0
335800,-0.340571343898773,0
335910,-0.34160715341568,0
336020,-0.341399997472763,0
336120,-0.341814309358597,0
336230,-0.340985685586929,0
336340,-0.341399997472763,0
336450,-0.340985685586929,0
336560,-0.341814309358597,0
336670,-0.341399997472763,0
336780,-0.340985685586929,0
336890,-0.34160715341568,0
337000,-0.339742720127106,0
337110,-0.342021465301514,0
337220,-0.340571343898773,0
337330,-0.341399997472763,0
337440,-0.341399997472763,0
337540,-0.341399997472763,0
337650,-0.342850118875504,0
337760,-0.341399997472763,0
337870,-0.341192841529846,0
337980,-0.34160715341568,0
338090,-0.340157032012939,0
338200,-0.34160715341568,0
338310,-0.341399997472763,0
338420,-0.342642962932587,0
338530,-0.340571343898773,0
338640,-0.342642962932587,0
338750,-0.340571343898773,0
338850,-0.340364187955856,0
338960,-0.339949876070023,0
339070,-0.34077849984169,0
339180,-0.340571343898773,0
339290,-0.341814309358597,0
339400,-0.34243580698967,0
339510,-0.341399997472763,0
339620,-0.342228621244431,0
339730,-0.341192841529846,0
339840,-0.341192841529846,0
339950,-0.34077849984169,0
340060,-0.34077849984169,0
340170,-0.341192841529846,0
340270,-0.34243580698967,0
340380,-0.341399997472763,0
340490,-0.341192841529846,0
340600,-0.341399997472763,0
340710,-0.341399997472763,0
340820,-0.34160715341568,0
340930,-0.341192841529846,0
341040,-0.342021465301514,0
341150,-0.341814309358597,0
341260,-0.342228621244431,0
341370,-0.34243580698967,0
341480,-0.341814309358597,0
341580,-0.341814309358597,0
341690,-0.342021465301514,0
341800,-0.340985685586929,0
341910,-0.341814309358597,0
342020,-0.341814309358597,0
342130,-0.340985685586929,0
342240,-0.34243580698967,0
342350,-0.342642962932587,0
342460,-0.341192841529846,0
342570,-0.34160715341568,0
342680,-0.341399997472763,0
342790,-0.342021465301514,0
342900,-0.342021465301514,0
343000,-0.341192841529846,0
343110,-0.340985685586929,0
343220,-0.341814309358597,0
343330,-0.342642962932587,0
343440,-0.341399997472763,0
343550,-0.341814309358597,0
343660,-0.341814309358597,0
343770,-0.341192841529846,0
343880,-0.34160715341568,0
343990,-0.34160715341568,0
344100,-0.340985685586929,0
344210,-0.341399997472763,0
344310,-0.342021465301514,0
344420,-0.341399997472763,0
344530,-0.341192841529846,0
344640,-0.340985685586929,0
344750,-0.34160715341568,0
344860,-0.341192841529846,0
344970,-0.34160715341568,0
345080,-0.34243580698967,0
345190,-0.341814309358597,0
345300,-0.34160715341568,0
345410,-0.341814309358597,0
345520,-0.340985685586929,0
345630,-0.341192841529846,0
345730,-0.341192841529846,0
345840,-0.341399997472763,0
345950,-0.341814309358597,0
346060,-0.34077849984169,0
346170,-0.342021465301514,0
346280,-0.340985685586929,0
346390,-0.341192841529846,0
346500,-0.34160715341568,0
346610,-0.340364187955856,0
346720,-0.340571343898773,0
346830,-0.34243580698967,0
346940,-0.341192841529846,0
347040,-0.341814309358597,0
347150,-0.34160715341568,0
347260,-0.340985685586929,0
347370,-0.34077849984169,0
347480,-0.341399997472763,0
347590,-0.342642962932587,0
347700,-0.34243580698967,0
347810,-0.342228621244431,0
347920,-0.341192841529846,0
348030,-0.34077849984169,0
348140,-0.342850118875504,0
348250,-0.341814309358597,0
348360,-0.341192841529846,0
348460,-0.34160715341568,0
348570,-0.34077849984169,0
348680,-0.34160715341568,0
348790,-0.341192841529846,0
348900,-0.340571343898773,0
349010,-0.34077849984169,0
349120,-0.341192841529846,0
349230,-0.341814309358597,0
349340,-0.342021465301514,0
349450,-0.340985685586929,0
349560,-0.341399997472763,0
349670,-0.341399997472763,0
349770,-0.34160715341568,0
349880,-0.341192841529846,0
349990,-0.34077849984169,0
350100,-0.34160715341568,0
350210,-0.34077849984169,0
350320,-0.341814309358597,0
350430,-0.341192841529846,0
350540,-0.342021465301514,0
350650,-0.341814309358597,0
350760,-0.341399997472763,0
350870,-0.340985685586929,0
350980,-0.341192841529846,0
351090,-0.340571343898773,0
351190,-0.341192841529846,0
351300,-0.342642962932587,0
351410,-0.342021465301514,0
351520,-0.341192841529846,0
351630,-0.342228621244431,0
351740,-0.34160715341568,0
351850,-0.34160715341568,0
351960,-0.341399997472763,0
352070,-0.341399997472763,0
352180,-0.342228621244431,0
352290,-0.341192841529846,0
352400,-0.339949876070023,0
352500,-0.341399997472763,0
352610,-0.342021465301514,0
352720,-0.340571343898773,0
352830,-0.340364187955856,0
352940,-0.341814309358597,0
353050,-0.34077849984169,0
353160,-0.34160715341568,0
353270,-0.340985685586929,0
353380,-0.341192841529846,0
353490,-0.340364187955856,0
353600,-0.341399997472763,0
353710,-0.341399997472763,0
353820,-0.340985685586929,0
353920,-0.341192841529846,0
354030,-0.341399997472763,0
354140,-0.341399997472763,0
354250,-0.341814309358597,0
354360,-0.34160715341568,0
354470,-0.340985685586929,0
354580,-0.340985685586929,0
354690,-0.341814309358597,0
354800,-0.341399997472763,0
354910,-0.342021465301514,0
355020,-0.34077849984169,0
355130,-0.341192841529846,0
355230,-0.34160715341568,0
355340,-0.34160715341568,0
355450,-0.34077849984169,0
355560,-0.34077849984169,0
355670,-0.342021465301514,0
355780,-0.341399997472763,0
355890,-0.341399997472763,0
356000,-0.342228621244431,0
356110,-0.342021465301514,0
356220,-0.34243580698967,0
356330,-0.342021465301514,0
356440,-0.34160715341568,0
356550,-0.341399997472763,0
356650,-0.341192841529846,0
356760,-0.340985685586929,0
356870,-0.342021465301514,0
356980,-0.342021465301514,0
357090,-0.340571343898773,0
357200,-0.34243580698967,0
357310,-0.342021465301514,0
357420,-0.34160715341568,0
357530,-0.340985685586929,0
357640,-0.340985685586929,0
357750,-0.34160715341568,0
357860,-0.341399997472763,0
357960,-0.342228621244431,0
358070,-0.342021465301514,0
358180,-0.342021465301514,0
358290,-0.341814309358597,0
358400,-0.342021465301514,0
358510,-0.341399997472763,0
358620,-0.341399997472763,0
358730,-0.34160715341568,0
358840,-0.342228621244431,0
358950,-0.341399997472763,0
359060,-0.341192841529846,0
359170,-0.342228621244431,0
359280,-0.341192841529846,0
359380,-0.342021465301514,0
359490,-0.342021465301514,0
359600,-0.342021465301514,0
359710,-0.341399997472763,0
359820,-0.34243580698967,0
359930,-0.341399997472763,0
360040,-0.342228621244431,0
360150,-0.341814309358597,0
360260,-0.34160715341568,0
360370,-0.34077849984169,0
360480,-0.341192841529846,0
360590,-0.340157032012939,0
360690,-0.342021465301514,0
360800,-0.340985685586929,0
360910,-0.341399997472763,0
361020,-0.341192841529846,0
361130,-0.339742720127106,0
361240,-0.342850118875504,0
361350,-0.34160715341568,0
361460,-0.341192841529846,0
361570,-0.340985685586929,0
361680,-0.342021465301514,0
361790,-0.341192841529846,0
361900,-0.34160715341568,0
362010,-0.342228621244431,0
362110,-0.341814309358597,0
362220,-0.341399997472763,0
362330,-0.34077849984169,0
362440,-0.340985685586929,0
362550,-0.34160715341568,0
362660,-0.34160715341568,0
362770,-0.341814309358597,0
362880,-0.34160715341568,0
362990,-0.341192841529846,0
363100,-0.340985685586929,0
363210,-0.34160715341568,0
363320,-0.342228621244431,0
363420,-0.34160715341568,0
363530,-0.34160715341568,0
363640,-0.341192841529846,0
363750,-0.342228621244431,0
363860,-0.341399997472763,0
363970,-0.34160715341568,0
364080,-0.34077849984169,0
364190,-0.342021465301514,0
364300,-0.340571343898773,0
364410,-0.341399997472763,0
364520,-0.342021465301514,0
364630,-0.340571343898773,0
364740,-0.342228621244431,0
364840,-0.340985685586929,0
364950,-0.341814309358597,0
365060,-0.34160715341568,0
365170,-0.34077849984169,0
365280,-0.341399997472763,0
365390,-0.341399997472763,0
365500,-0.34077849984169,0
365610,-0.34077849984169,0
365720,-0.34160715341568,0
365830,-0.342021465301514,0
365940,-0.342850118875504,0
366050,-0.34243580698967,0
366150,-0.340985685586929,0
366260,-0.342228621244431,0
366370,-0.342228621244431,0
366480,-0.341399997472763,0
366590,-0.341814309358597,0
366700,-0.341814309358597,0
366810,-0.342228621244431,0
366920,-0.340985685586929,0
367030,-0.341814309358597,0
367140,-0.341399997472763,0
367250,-0.341399997472763,0
367360,-0.341814309358597,0
367470,-0.341814309358597,0
367570,-0.34160715341568,0
367680,-0.342021465301514,0
367790,-0.342021465301514,0
367900,-0.341192841529846,0
368010,-0.342228621244431,0
368120,-0.34160715341568,0
368230,-0.341814309358597,0
368340,-0.340985685586929,0
368450,-0.341814309358597,0
368560,-0.34243580698967,0
368670,-0.340364187955856,0
368780,-0.342021465301514,0
368880,-0.34160715341568,0
368990,-0.341192841529846,0
369100,-0.341399997472763,0
369210,-0.340571343898773,0
369320,-0.340985685586929,0
369430,-0.34077849984169,0
369540,-0.342228621244431,0
369650,-0.340985685586929,0
369760,-0.341192841529846,0
369870,-0.340571343898773,0
369980,-0.34243580698967,0
370090,-0.340985685586929,0
370200,-0.342021465301514,0
370300,-0.34160715341568,0
370410,-0.341399997472763,0
370520,-0.34077849984169,0
370630,-0.342021465301514,0
370740,-0.341192841529846,0
370850,-0.342021465301514,0
370960,-0.34160715341568,0
371070,-0.341192841529846,0
371180,-0.34160715341568,0
371290,-0.340985685586929,0
371400,-0.342021465301514,0
371510,-0.341192841529846,0
371610,-0.341814309358597,0
371720,-0.34243580698967,0
371830,-0.341192841529846,0
371940,-0.341814309358597,0
372050,-0.342642962932587,0
372160,-0.341399997472763,0
372270,-0.342021465301514,0
372380,-0.34243580698967,0
372490,-0.342228621244431,0
372600,-0.341399997472763,0
372710,-0.34160715341568,0
372820,-0.34160715341568,0
372930,-0.340364187955856,0
373030,-0.341192841529846,0
373140,-0.342021465301514,0
373250,-0.34243580698967,0
373360,-0.341814309358597,0
373470,-0.340985685586929,0
373580,-0.342021465301514,0
373690,-0.341814309358597,0
373800,-0.340364187955856,0
373910,-0.341814309358597,0
374020,-0.340985685586929,0
374130,-0.341814309358597,0
374240,-0.342021465301514,0
374340,-0.34077849984169,0
374450,-0.340571343898773,0
374560,-0.342228621244431,0
374670,-0.341814309358597,0
374780,-0.341399997472763,0
374890,-0.341814309358597,0
375000,-0.340364187955856,0
375110,-0.341399997472763,0
375220,-0.340985685586929,0
375330,-0.341399997472763,0
375440,-0.341399997472763,0
375550,-0.34160715341568,0
375660,-0.34077849984169,0
375760,-0.34077849984169,0
375870,-0.341192841529846,0
375980,-0.341399997472763,0
376090,-0.34160715341568,0
376200,-0.341192841529846,0
376310,-0.341399997472763,0
376420,-0.342021465301514,0
376530,-0.34160715341568,0
376640,-0.340985685586929,0
376750,-0.341399997472763,0
376860,-0.34077849984169,0
376970,-0.340985685586929,0
377070,-0.341814309358597,0
377180,-0.340985685586929,0
377290,-0.34160715341568,0
377400,-0.341192841529846,0
377510,-0.34160715341568,0
377620,-0.340985685586929,0
377730,-0.341399997472763,0
377840,-0.340571343898773,0
377950,-0.34305727481842,0
378060,-0.34160715341568,0
378170,-0.342228621244431,0
378280,-0.341192841529846,0
378390,-0.34077849984169,0
378490,-0.341192841529846,0
378600,-0.342021465301514,0
378710,-0.34160715341568,0
378820,-0.342228621244431,0
378930,-0.341192841529846,0
379040,-0.340985685586929,0
379150,-0.341399997472763,0
379260,-0.34160715341568,0
379370,-0.34160715341568,0
379480,-0.34243580698967,0
379590,-0.342021465301514,0
379700,-0.342021465301514,0
379800,-0.34160715341568,0
379910,-0.342228621244431,0
380020,-0.34077849984169,0
380130,-0.342021465301514,0
380240,-0.342021465301514,0
380350,-0.341814309358597,0
380460,-0.340571343898773,0
380570,-0.341814309358597,0
380680,-0.341192841529846,0
380790,-0.341399997472763,0
380900,-0.342021465301514,0
381010,-0.34077849984169,0
381120,-0.34243580698967,0
381220,-0.341814309358597,0
381330,-0.341192841529846,0
381440,-0.34160715341568,0
381550,-0.341192841529846,0
381660,-0.340157032012939,0
381770,-0.341814309358597,0
381880,-0.341192841529846,0
381990,-0.34243580698967,0
382100,-0.342021465301514,0
382210,-0.341192841529846,0
382320,-0.34160715341568,0
382430,-0.341192841529846,0
382530,-0.341399997472763,0
382640,-0.34077849984169,0
382750,-0.342642962932587,0
382860,-0.342021465301514,0
382970,-0.341399997472763,0
383080,-0.340985685586929,0
383190,-0.339949876070023,0
383300,-0.341399997472763,0
383410,-0.341814309358597,0
383520,-0.342021465301514,0
383630,-0.342021465301514,0
383740,-0.341399997472763,0
383850,-0.341399997472763,0
383950,-0.340985685586929,0
384060,-0.341192841529846,0
384170,-0.341814309358597,0
384280,-0.342850118875504,0
384390,-0.341192841529846,0
384500,-0.34160715341568,0
384610,-0.341814309358597,0
384720,-0.342021465301514,0
384830,-0.34077849984169,0
384940,-0.341192841529846,0
385050,-0.34160715341568,0
385160,-0.341192841529846,0
385260,-0.341399997472763,0
385370,-0.342228621244431,0
385480,-0.341814309358597,0
385590,-0.342021465301514,0
385700,-0.341399997472763,0
385810,-0.340985685586929,0
385920,-0.34243580698967,0
386030,-0.34243580698967,0
386140,-0.340985685586929,0
386250,-0.341399997472763,0
386360,-0.341399997472763,0
386470,-0.341399997472763,0
386580,-0.341399997472763,0
386680,-0.34160715341568,0
386790,-0.34077849984169,0
386900,-0.34160715341568,0
387010,-0.34160715341568,0
387120,-0.342228621244431,0
387230,-0.341399997472763,0
387340,-0.34305727481842,0
387450,-0.341814309358597,0
387560,-0.341399997472763,0
387670,-0.34160715341568,0
387780,-0.340571343898773,0
387890,-0.341814309358597,0
387990,-0.341192841529846,0
388100,-0.341814309358597,0
388210,-0.34160715341568,0
388320,-0.34160715341568,0
388430,-0.340985685586929,0
388540,-0.341192841529846,0
388650,-0.341399997472763,0
388760,-0.341192841529846,0
388870,-0.340985685586929,0
388980,-0.340571343898773,0
389090,-0.341399997472763,0
389200,-0.341399997472763,0
389310,-0.340571343898773,0
389410,-0.342228621244431,0
389520,-0.342228621244431,0
389630,-0.342228621244431,0
389740,-0.34077849984169,0
389850,-0.341192841529846,0
389960,-0.341814309358597,0
390070,-0.34077849984169,0
390180,-0.341814309358597,0
390290,-0.342642962932587,0
390400,-0.342850118875504,0
390510,-0.340364187955856,0
390620,-0.341399997472763,0
390720,-0.342021465301514,0
390830,-0.34160715341568,0
390940,-0.341192841529846,0
391050,-0.34077849984169,0
391160,-0.341192841529846,0
391270,-0.34243580698967,0
391380,-0.341814309358597,0
391490,-0.342021465301514,0
391600,-0.34160715341568,0
391710,-0.340571343898773,0
391820,-0.342228621244431,0
391930,-0.341192841529846,0
392040,-0.341192841529846,0
392140,-0.34243580698967,0
392250,-0.341814309358597,0
392360,-0.342021465301514,0
392470,-0.341814309358597,0
392580,-0.341192841529846,0
392690,-0.341192841529846,0
392800,-0.34160715341568,0
392910,-0.34160715341568,0
393020,-0.341399997472763,0
393130,-0.342642962932587,0
393240,-0.341814309358597,0
393350,-0.34160715341568,0
393450,-0.341399997472763,0
393560,-0.341399997472763,0
393670,-0.341192841529846,0
393780,-0.342228621244431,0
393890,-0.34243580698967,0
394000,-0.341814309358597,0
394110,-0.341192841529846,0
394220,-0.340985685586929,0
394330,-0.33932837843895,0
394440,-0.341192841529846,0
394550,-0.340985685586929,0
394660,-0.34077849984169,0
394770,-0.342228621244431,0
394870,-0.342228621244431,0
394980,-0.341192841529846,0
395090,-0.341399997472763,0
395200,-0.341814309358597,0
395310,-0.34160715341568,0
395420,-0.341399997472763,0
395530,-0.341814309358597,0
395640,-0.342021465301514,0
395750,-0.341399997472763,0
395860,-0.34160715341568,0
395970,-0.34077849984169,0
396080,-0.341814309358597,0
396180,-0.340985685586929,0
396290,-0.341192841529846,0
396400,-0.342228621244431,0
396510,-0.341814309358597,0
396620,-0.342021465301514,0
396730,-0.341814309358597,0
396840,-0.341399997472763,0
396950,-0.341399997472763,0
397060,-0.341192841529846,0
397170,-0.34243580698967,0
397280,-0.342850118875504,0
397390,-0.341814309358597,0
397500,-0.342850118875504,0
397600,-0.341192841529846,0
397710,-0.341399997472763,0
397820,-0.34160715341568,0
397930,-0.341192841529846,0
398040,-0.34160715341568,0
398150,-0.342228621244431,0
398260,-0.340985685586929,0
398370,-0.34160715341568,0
398480,-0.341399997472763,0
398590,-0.342228621244431,0
398700,-0.342021465301514,0
398810,-0.341192841529846,0
398910,-0.34160715341568,0
399020,-0.341399997472763,0
399130,-0.340571343898773,0
399240,-0.34160715341568,0
399350,-0.34160715341568,0
399460,-0.341192841529846,0
399570,-0.34077849984169,0
399680,-0.340571343898773,0
399790,-0.341399997472763,0
399900,-0.341192841529846,0
400010,-0.34160715341568,0
400120,-0.34160715341568,0
400230,-0.340157032012939,0
400330,-0.34243580698967,0
400440,-0.340157032012939,0
400550,-0.340985685586929,0
400660,-0.34243580698967,0
400770,-0.34160715341568,0
400880,-0.34243580698967,0
400990,-0.34243580698967,0
401100,-0.341399997472763,0
401210,-0.341399997472763,0
401320,-0.34077849984169,0
401430,-0.34243580698967,0
401540,-0.341814309358597,0
401640,-0.340985685586929,0
401750,-0.34243580698967,0
401860,-0.342228621244431,0
401970,-0.341399997472763,0
402080,-0.341814309358597,0
402190,-0.340985685586929,0
402300,-0.342228621244431,0
402410,-0.341814309358597,0
402520,-0.34077849984169,0
402630,-0.34077849984169,0
402740,-0.341399997472763,0
402850,-0.341399997472763,0
402960,-0.341399997472763,0
403060,-0.34077849984169,0
403170,-0.342228621244431,0
403280,-0.34160715341568,0
403390,-0.34160715341568,0
403500,-0.34160715341568,0
403610,-0.342021465301514,0
403720,-0.340571343898773,0
403830,-0.340985685586929,0
403940,-0.34160715341568,0
404050,-0.342228621244431,0
404160,-0.342021465301514,0
404270,-0.340985685586929,0
404370,-0.342228621244431,0
404480,-0.34160715341568,0
404590,-0.340985685586929,0
404700,-0.341814309358597,0
404810,-0.34160715341568,0
404920,-0.34160715341568,0
405030,-0.341399997472763,0
405140,-0.341399997472763,0
405250,-0.340985685586929,0
405360,-0.34160715341568,0
405470,-0.342642962932587,0
405580,-0.34160715341568,0
405690,-0.340364187955856,0
405790,-0.34243580698967,0
405900,-0.34305727481842,0
406010,-0.34077849984169,0
406120,-0.341399997472763,0
406230,-0.34160715341568,0
406340,-0.34243580698967,0
406450,-0.34160715341568,0
406560,-0.34160715341568,0
406670,-0.34160715341568,0
406780,-0.342021465301514,0
406890,-0.340985685586929,0
407000,-0.34160715341568,0
407100,-0.342228621244431,0
407210,-0.341814309358597,0
407320,-0.340985685586929,0
407430,-0.340985685586929,0
407540,-0.341399997472763,0
407650,-0.342850118875504,0
407760,-0.341192841529846,0
407870,-0.34160715341568,0
407980,-0.34160715341568,0
408090,-0.342228621244431,0
408200,-0.341192841529846,0
408310,-0.341399997472763,0
408420,-0.341399997472763,0
408520,-0.34160715341568,0
408630,-0.341814309358597,0
408740,-0.340985685586929,0
408850,-0.342021465301514,0
408960,-0.340985685586929,0
409070,-0.341192841529846,0
409180,-0.34160715341568,0
409290,-0.342228621244431,0
409400,-0.341814309358597,0
409510,-0.342021465301514,0
409620,-0.342228621244431,0
409730,-0.34160715341568,0
409830,-0.342228621244431,0
409940,-0.340157032012939,0
410060,-0.341192841529846,0
410160,-0.342228621244431,0
410270,-0.341814309358597,0
410380,-0.34160715341568,0
410490,-0.340985685586929,0
410600,-0.34160715341568,0
410710,-0.34160715341568,0
410820,-0.341192841529846,0
410930,-0.34160715341568,0
411040,-0.34160715341568,0
411150,-0.341814309358597,0
411250,-0.342021465301514,0
411360,-0.341814309358597,0
411470,-0.340985685586929,0
411580,-0.340571343898773,0
411690,-0.34160715341568,0
411800,-0.34160715341568,0
411910,-0.342021465301514,0
412020,-0.340571343898773,0
412130,-0.342228621244431,0
412240,-0.341814309358597,0
412350,-0.34160715341568,0
412460,-0.342228621244431,0
412560,-0.340364187955856,0
412670,-0.341814309358597,0
412780,-0.34077849984169,0
412890,-0.340364187955856,0
413000,-0.341399997472763,0
413110,-0.341399997472763,0
413220,-0.34305727481842,0
413330,-0.341814309358597,0
413440,-0.340985685586929,0
413550,-0.341192841529846,0
413660,-0.342228621244431,0
413770,-0.341399997472763,0
413880,-0.341814309358597,0
413980,-0.341814309358597,0
414090,-0.34160715341568,0
414200,-0.341814309358597,0
414310,-0.341399997472763,0
414420,-0.340985685586929,0
414530,-0.340985685586929,0
414640,-0.34160715341568,0
414750,-0.341192841529846,0
414860,-0.341814309358597,0
414970,-0.342021465301514,0
415080,-0.340157032012939,0
415190,-0.340571343898773,0
415290,-0.342850118875504,0
415400,-0.341192841529846,0
415510,-0.341192841529846,0
415620,-0.34243580698967,0
415730,-0.34077849984169,0
415840,-0.342228621244431,0
415950,-0.341399997472763,0
416060,-0.342642962932587,0
416170,-0.341399997472763,0
416280,-0.341814309358597,0
416390,-0.341814309358597,0
416500,-0.341814309358597,0
416610,-0.340364187955856,0
416710,-0.341192841529846,0
416820,-0.342021465301514,0
416930,-0.342021465301514,0
417040,-0.341814309358597,0
417150,-0.341399997472763,0
417260,-0.341192841529846,0
417370,-0.341399997472763,0
417480,-0.341814309358597,0
417590,-0.342021465301514,0
417700,-0.340157032012939,0
417810,-0.341192841529846,0
417920,-0.341814309358597,0
418030,-0.34160715341568,0
418130,-0.342228621244431,0
418240,-0.342021465301514,0
418350,-0.34077849984169,0
418460,-0.34077849984169,0
418570,-0.34305727481842,0
418680,-0.341399997472763,0
418790,-0.34160715341568,0
418900,-0.34160715341568,0
419010,-0.341399997472763,0
419120,-0.341814309358597,0
419230,-0.341399997472763,0
419340,-0.343264430761337,0
419440,-0.342228621244431,0
419550,-0.341399997472763,0
419660,-0.34160715341568,0
419770,-0.341814309358597,0
419880,-0.341192841529846,0
419990,-0.341192841529846,0
420100,-0.341399997472763,0
420210,-0.34160715341568,0
420320,-0.342021465301514,0
420430,-0.34160715341568,0
420540,-0.34077849984169,0
420650,-0.34160715341568,0
420760,-0.34160715341568,0
420860,-0.340985685586929,0
420970,-0.341399997472763,0
421080,-0.342228621244431,0
421190,-0.341192841529846,0
421300,-0.342228621244431,0
421410,-0.340985685586929,0
421520,-0.34160715341568,0
421630,-0.342021465301514,0
421740,-0.34077849984169,0
421860,-0.341399997472763,0
421960,-0.34077849984169,0
422070,-0.34160715341568,0
422170,-0.341192841529846,0
422280,-0.34160715341568,0
422390,-0.340985685586929,0
422500,-0.341399997472763,0
422610,-0.34160715341568,0
422720,-0.34243580698967,0
422830,-0.341399997472763,0
422940,-0.341399997472763,0
423050,-0.34243580698967,0
423160,-0.34160715341568,0
423270,-0.341814309358597,0
423380,-0.341192841529846,0
423490,-0.341399997472763,0
423590,-0.34077849984169,0
423700,-0.34077849984169,0
423810,-0.339742720127106,0
423920,-0.34160715341568,0
424030,-0.34243580698967,0
424140,-0.34160715341568,0
424250,-0.341192841529846,0
424360,-0.342021465301514,0
424470,-0.341399997472763,0
424580,-0.341399997472763,0
424690,-0.342021465301514,0
424800,-0.341192841529846,0
424900,-0.341192841529846,0
425010,-0.34160715341568,0
425120,-0.341814309358597,0
425230,-0.34243580698967,0
425340,-0.342228621244431,0
425450,-0.340985685586929,0
425560,-0.340985685586929,0
425670,-0.341814309358597,0
425780,-0.340985685586929,0
425890,-0.34243580698967,0
426000,-0.341814309358597,0
426110,-0.341814309358597,0
426220,-0.341399997472763,0
426320,-0.341399997472763,0
426430,-0.340364187955856,0
426540,-0.342642962932587,0
426650,-0.341192841529846,0
426760,-0.341399997472763,0
426870,-0.341192841529846,0
426980,-0.341192841529846,0
427090,-0.342850118875504,0
427200,-0.34243580698967,0
427310,-0.342228621244431,0
427420,-0.34160715341568,0
427530,-0.341399997472763,0
427630,-0.342021465301514,0
427740,-0.341192841529846,0
427850,-0.342228621244431,0
427960,-0.341399997472763,0
428070,-0.342642962932587,0
428180,-0.34160715341568,0
428290,-0.341192841529846,0
428400,-0.340985685586929,0
428510,-0.341192841529846,0
428620,-0.341814309358597,0
428730,-0.341814309358597,0
428840,-0.34243580698967,0
428950,-0.342021465301514,0
429050,-0.341399997472763,0
429160,-0.342850118875504,0
429270,-0.34160715341568,0
429380,-0.34077849984169,0
429490,-0.342021465301514,0
429600,-0.34160715341568,0
429710,-0.34243580698967,0
429820,-0.340985685586929,0
429930,-0.342228621244431,0
430040,-0.340571343898773,0
430150,-0.34160715341568,0
430260,-0.34160715341568,0
430360,-0.340157032012939,0
430470,-0.341192841529846,0
430580,-0.341192841529846,0
430690,-0.341399997472763,0
430800,-0.34160715341568,0
430910,-0.340985685586929,0
431020,-0.34160715341568,0
431130,-0.34077849984169,0
431240,-0.341814309358597,0
431350,-0.342850118875504,0
431460,-0.340985685586929,0
431570,-0.34077849984169,0
431680,-0.34077849984169,0
431780,-0.34160715341568,0
431890,-0.341399997472763,0
432000,-0.341399997472763,0
432110,-0.34077849984169,0
432220,-0.341399997472763,0
432330,-0.34160715341568,0
432440,-0.34160715341568,0
432550,-0.342021465301514,0
432660,-0.341192841529846,0
432770,-0.341399997472763,0
432880,-0.340571343898773,0
432990,-0.341814309358597,0
433090,-0.34160715341568,0
433200,-0.34160715341568,0
433310,-0.340571343898773,0
433420,-0.34160715341568,0
433530,-0.341192841529846,0
433640,-0.340985685586929,0
433750,-0.34243580698967,0
433860,-0.341814309358597,0
433970,-0.341814309358597,0
434080,-0.341192841529846,0
434190,-0.341814309358597,0
434300,-0.340985685586929,0
434410,-0.341814309358597,0
434510,-0.340985685586929,0
434620,-0.341399997472763,0
434730,-0.34160715341568,0
434840,-0.34160715341568,0
434950,-0.342228621244431,0
435060,-0.341814309358597,0
435170,-0.341399997472763,0
435280,-0.341192841529846,0
435390,-0.34160715341568,0
435500,-0.341399997472763,0
435610,-0.34160715341568,0
435720,-0.341399997472763,0
435820,-0.342228621244431,0
435930,-0.341192841529846,0
436040,-0.340985685586929,0
436150,-0.340985685586929,0
436260,-0.341192841529846,0
436370,-0.34160715341568,0
436480,-0.34160715341568,0
436590,-0.341399997472763,0
436700,-0.34243580698967,0
436810,-0.342228621244431,0
436920,-0.341814309358597,0
437030,-0.34160715341568,0
437140,-0.34077849984169,0
437240,-0.342642962932587,0
437350,-0.341399997472763,0
437460,-0.342642962932587,0
437570,-0.34160715341568,0
437680,-0.341399997472763,0
437790,-0.341814309358597,0
437900,-0.341399997472763,0
438010,-0.34160715341568,0
438120,-0.340571343898773,0
438230,-0.340571343898773,0
438340,-0.341399997472763,0
438450,-0.34243580698967,0
438550,-0.342228621244431,0
438660,-0.34160715341568,0
438770,-0.341814309358597,0
438880,-0.341192841529846,0
438990,-0.34160715341568,0
439100,-0.34077849984169,0
439210,-0.341814309358597,0
439320,-0.34243580698967,0
439430,-0.341192841529846,0
439540,-0.342021465301514,0
439650,-0.340985685586929,0
439760,-0.34160715341568,0
439870,-0.34160715341568,0
439970,-0.34077849984169,0
440080,-0.340571343898773,0
440190,-0.341814309358597,0
440300,-0.341192841529846,0
440410,-0.342021465301514,0
440520,-0.341399997472763,0
440630,-0.342021465301514,0
440740,-0.34160715341568,0
440850,-0.342228621244431,0
440960,-0.34243580698967,0
441070,-0.341814309358597,0
441180,-0.342642962932587,0
441280,-0.34160715341568,0
441390,-0.34160715341568,0
441500,-0.341399997472763,0
441610,-0.341399997472763,0
441720,-0.34243580698967,0
441830,-0.341399997472763,0
441940,-0.340985685586929,0
442050,-0.340985685586929,0
442160,-0.340985685586929,0
442270,-0.34243580698967,0
442380,-0.340571343898773,0
442490,-0.34077849984169,0
442600,-0.341399997472763,0
442700,-0.340571343898773,0
442810,-0.342021465301514,0
442920,-0.34077849984169,0
443030,-0.34160715341568,0
443140,-0.341399997472763,0
443250,-0.34160715341568,0
443360,-0.341814309358597,0
443470,-0.341192841529846,0
443580,-0.342021465301514,0
443690,-0.341399997472763,0
443800,-0.341192841529846,0
443910,-0.34243580698967,0
444010,-0.340985685586929,0
444120,-0.342850118875504,0
444230,-0.34160715341568,0
444340,-0.342228621244431,0
444450,-0.341399997472763,0
444560,-0.340571343898773,0
444670,-0.340364187955856,0
444780,-0.34160715341568,0
444890,-0.340985685586929,0
445000,-0.341192841529846,0
445110,-0.34160715341568,0
445220,-0.341192841529846,0
445330,-0.340985685586929,0
445430,-0.340985685586929,0
445540,-0.342021465301514,0
445650,-0.341192841529846,0
445760,-0.34160715341568,0
445870,-0.34243580698967,0
445980,-0.342228621244431,0
446090,-0.340985685586929,0
446200,-0.340985685586929,0
446310,-0.341192841529846,0
446420,-0.342228621244431,0
446530,-0.341192841529846,0
446640,-0.341399997472763,0
446740,-0.340364187955856,0
446850,-0.34160715341568,0
446960,-0.340985685586929,0
447070,-0.34160715341568,0
447180,-0.34160715341568,0
447290,-0.341192841529846,0
447400,-0.341814309358597,0
447510,-0.34077849984169,0
447620,-0.34160715341568,0
447730,-0.341399997472763,0
447840,-0.34243580698967,0
447950,-0.341192841529846,0
448060,-0.341399997472763,0
448160,-0.34160715341568,0
448270,-0.342642962932587,0
448380,-0.340985685586929,0
448490,-0.341192841529846,0
448600,-0.34160715341568,0
448710,-0.342021465301514,0
448820,-0.340985685586929,0
448930,-0.341192841529846,0
449040,-0.341399997472763,0
449150,-0.342642962932587,0
449260,-0.342021465301514,0
449370,-0.340364187955856,0
449470,-0.340571343898773,0
449580,-0.341399997472763,0
449690,-0.34160715341568,0
449800,-0.342228621244431,0
449910,-0.342228621244431,0
450020,-0.342021465301514,0
450130,-0.342021465301514,0
450240,-0.34160715341568,0
450350,-0.341192841529846,0
450460,-0.340985685586929,0
450570,-0.341192841529846,0
450680,-0.34243580698967,0
450790,-0.341814309358597,0
450890,-0.341399997472763,0
451000,-0.34160715341568,0
451110,-0.34077849984169,0
451220,-0.34077849984169,0
451330,-0.34160715341568,0
451440,-0.342021465301514,0
451550,-0.340985685586929,0
451660,-0.342021465301514,0
451770,-0.341814309358597,0
451880,-0.340985685586929,0
451990,-0.340985685586929,0
452100,-0.34160715341568,0
452200,-0.34160715341568,0
452310,-0.340571343898773,0
452420,-0.341192841529846,0
452530,-0.34243580698967,0
452640,-0.34077849984169,0
452750,-0.340985685586929,0
452860,-0.342021465301514,0
452970,-0.340985685586929,0
453080,-0.341399997472763,0
453190,-0.341399997472763,0
453300,-0.34160715341568,0
453410,-0.34243580698967,0
453520,-0.341399997472763,0
453620,-0.339742720127106,0
453730,-0.341814309358597,0
453840,-0.34077849984169,0
453950,-0.342228621244431,0
454060,-0.34160715341568,0
454170,-0.340571343898773,0
454280,-0.342850118875504,0
454390,-0.340985685586929,0
454500,-0.340985685586929,0
454610,-0.341814309358597,0
454720,-0.340985685586929,0
454830,-0.342228621244431,0
454930,-0.341192841529846,0
455040,-0.34160715341568,0
455150,-0.341814309358597,0
455260,-0.341399997472763,0
455370,-0.342228621244431,0
455480,-0.342642962932587,0
455590,-0.340571343898773,0
455700,-0.340157032012939,0
455810,-0.34243580698967,0
455920,-0.333320736885071,0
456030,-0.342642962932587,0
456140,-0.345128864049912,0
456250,-0.341399997472763,0
456350,-0.344507396221161,0
456460,-0.340157032012939,0
456570,-0.339742720127106,0
456680,-0.34243580698967,0
456790,-0.340985685586929,0
456900,-0.343264430761337,0
457010,-0.338706910610199,0
457120,-0.34243580698967,0
457230,-0.34160715341568,0
457340,-0.34160715341568,0
457450,-0.341814309358597,0
457560,-0.341399997472763,0
457660,-0.340364187955856,0
457770,-0.342850118875504,0
457880,-0.341192841529846,0
457990,-0.342850118875504,0
458100,-0.341814309358597,0
458210,-0.340364187955856,0
458320,-0.34243580698967,0
458430,-0.340985685586929,0
458540,-0.34160715341568,0
458650,-0.34160715341568,0
458760,-0.340364187955856,0
458870,-0.342642962932587,0
458980,-0.341399997472763,0
459080,-0.342228621244431,0
459190,-0.342228621244431,0
459300,-0.342228621244431,0
459410,-0.341192841529846,0
459520,-0.342021465301514,0
459630,-0.342228621244431,0
459740,-0.34160715341568,0
459850,-0.341814309358597,0
459960,-0.342228621244431,0
460070,-0.341399997472763,0
460180,-0.340571343898773,0
460290,-0.342642962932587,0
460390,-0.342228621244431,0
460500,-0.340985685586929,0
460610,-0.341192841529846,0
460720,-0.341399997472763,0
460830,-0.342021465301514,0
460940,-0.340985685586929,0
461050,-0.342021465301514,0
461160,-0.340985685586929,0
461270,-0.341399997472763,0
461380,-0.341814309358597,0
461490,-0.340157032012939,0
461600,-0.34077849984169,0
461710,-0.341192841529846,0
461810,-0.342228621244431,0
461920,-0.342228621244431,0
462030,-0.342021465301514,0
462140,-0.341399997472763,0
462250,-0.341192841529846,0
462360,-0.341192841529846,0
462470,-0.340985685586929,0
462580,-0.341192841529846,0
462690,-0.34160715341568,0
462800,-0.340364187955856,0
462910,-0.341814309358597,0
463020,-0.34160715341568,0
463120,-0.342228621244431,0
463230,-0.34305727481842,0
463340,-0.342021465301514,0
463450,-0.341814309358597,0
463560,-0.341399997472763,0
463670,-0.34160715341568,0
463780,-0.340571343898773,0
463890,-0.341399997472763,0
464000,-0.341192841529846,0
464110,-0.34160715341568,0
464220,-0.341192841529846,0
464330,-0.342021465301514,0
464440,-0.34077849984169,0
464540,-0.342850118875504,0
464650,-0.34077849984169,0
464760,-0.341399997472763,0
464870,-0.340364187955856,0
464980,-0.340364187955856,0
465090,-0.340157032012939,0
465200,-0.34160715341568,0
465310,-0.341399997472763,0
465420,-0.34243580698967,0
465530,-0.34160715341568,0
465640,-0.341814309358597,0
465750,-0.34160715341568,0
