time,raw,transformed
7700,-0.34243580698967,0
7810,-0.343471586704254,0
7920,-0.342642962932587,0
8030,-0.34305727481842,0
8140,-0.34305727481842,0
8250,-0.343678742647171,0
8360,-0.34243580698967,0
8470,-0.34305727481842,0
8580,-0.342850118875504,0
8690,-0.34388592839241,80.000287720107
8790,-0.343471586704254,76.364054865611
8900,-0.342228621244431,52.0832584067614
9010,-0.342228621244431,55.76916160624
9120,-0.34305727481842,55.3570786343659
9230,-0.342642962932587,56.6665467841531
9340,-0.343471586704254,54.687443805071
9450,-0.34243580698967,56.6175148354613
9560,-0.342228621244431,59.0276529001582
9670,-0.341814309358597,50.000227147451
9780,-0.342850118875504,50.0002157900799
9890,-0.341814309358597,52.3811578953135
10000,-0.343678742647171,50.4547939400919
10110,-0.34243580698967,51.3045604887746
10210,-0.342850118875504,51.2502038017408
10320,-0.343678742647171,49.6002416848878
10430,-0.342642962932587,50.0002213231586
10540,-0.343264430761337,49.2594936978642
10650,-0.342642962932587,49.6430729329377
10760,-0.343471586704254,48.6209277683641
10870,-0.343471586704254,47.6669256147607
10980,-0.34305727481842,47.4196147149339
11090,-0.342228621244431,48.4377697375993
11200,-0.344093084335327,51.5152704080681
11310,-0.341814309358597,52.9412918666545
11420,-0.342850118875504,52.9871216891074
11520,-0.343678742647171,52.0203308208623
11630,-0.343471586704254,51.3514927375216
11740,-0.343264430761337,50.9570848508091
11850,-0.342850118875504,51.0490912816212
11960,-0.343264430761337,50.6819638256402
12070,-0.34388592839241,49.6675420568472
12180,-0.34243580698967,50.2165691093668
12290,-0.343678742647171,49.4715942564105
12400,-0.34243580698967,50.0001188929178
12510,-0.34160715341568,47.0372412837715
12620,-0.344507396221161,53.4161682157807
12730,-0.342850118875504,53.4954563462047
12840,-0.342850118875504,53.5714408045275
12940,-0.34305727481842,53.4985542574953
13050,-0.34243580698967,53.8571457930856
13160,-0.34388592839241,53.2212827586534
13270,-0.343678742647171,52.7472555702762
13380,-0.34243580698967,53.0997249187053
13490,-0.34305727481842,53.0423226053948
13600,-0.342850118875504,53.1168751097648
13710,-0.34388592839241,52.5510046798938
13820,-0.345128864049912,59.8553691984108
13930,-0.34305727481842,59.8375762824781
14040,-0.344507396221161,59.1224777039384
14150,-0.343678742647171,58.8233800743004
14250,-0.34305727481842,58.8233800743004
14360,-0.343264430761337,58.7285050197377
14470,-0.344093084335327,58.2631520339372
14580,-0.34305727481842,58.2719055970686
14690,-0.342850118875504,58.370886025685
14800,-0.344300240278244,57.8429788666814
14910,-0.343678742647171,57.5942272406974
15020,-0.342228621244431,57.9583303673255
15130,-0.34243580698967,58.2266174666817
15240,-0.343264430761337,58.151110455607
15350,-0.34243580698967,58.4091249593716
15460,-0.343678742647171,58.1697846116816
15570,-0.342850118875504,58.2593167876473
15670,-0.343264430761337,58.1874493539149
15780,-0.343471586704254,58.039068339977
15890,-0.343471586704254,57.8945920895628
16000,-0.343678742647171,57.6774755679545
16110,-0.344507396221161,57.1642612677064
16220,-0.342642962932587,57.3341805787486
16330,-0.342850118875504,57.4263237397293
16440,-0.34305727481842,57.4435713487974
16550,-0.344300240278244,57.0299791802933
16660,-0.343264430761337,56.9807158972954
16770,-0.342642962932587,57.1427060275661
16880,-0.342228621244431,57.4393005431399
16980,-0.343471586704254,57.3185979008785
17090,-0.341814309358597,57.7415766217539
17200,-0.342850118875504,57.820713631247
17310,-0.342228621244431,58.0963599932725
17420,-0.34243580698967,58.300513106934
17530,-0.343264430761337,58.2416187507198
17640,-0.34305727481842,58.2479422433671
17750,-0.34305727481842,58.2541297469259
17860,-0.342021465301514,58.5730804223229
17970,-0.342850118875504,58.6376336121633
18080,-0.342228621244431,58.8846711771564
18190,-0.34243580698967,59.065964672473
18300,-0.34243580698967,59.2435583005381
18400,-0.343471586704254,59.1204806743568
18510,-0.342642962932587,59.2351547360135
18620,-0.342228621244431,59.464046667849
18730,-0.344093084335327,59.1694115722267
18840,-0.344300240278244,58.8233882902774
18950,-0.34243580698967,58.9930685973224
19060,-0.342021465301514,59.2715678795787
19170,-0.342850118875504,59.3228326491777
19280,-0.342642962932587,59.4281135294662
19390,-0.344300240278244,59.0957144554116
19500,-0.343678742647171,58.9313190927538
19610,-0.342642962932587,59.0372878904564
19710,-0.34305727481842,59.0353607930137
19820,-0.34305727481842,59.033468108024
19930,-0.34243580698967,59.1877749408992
20040,-0.34305727481842,59.1845784947017
20150,-0.343471586704254,59.0791375800399
20260,-0.343471586704254,58.9755146121824
20370,-0.343471586704254,58.8736629771074
20480,-0.341814309358597,59.1723416520233
20590,-0.34243580698967,59.3177013038791
20700,-0.342228621244431,59.5096641251086
20810,-0.341814309358597,59.7956813357875
20920,-0.342021465301514,60.0287945480698
21030,-0.342021465301514,60.2581173016153
21130,-0.342642962932587,60.341421894668
21240,-0.344300240278244,60.0469226277613
21350,-0.342228621244431,60.2239568914423
21460,-0.342850118875504,60.2592456832969
21570,-0.341399997472763,60.6156754309506
21680,-0.34243580698967,60.6156754309506
21790,-0.34243580698967,60.8454509537188
21900,-0.343678742647171,60.6156754309506
22010,-0.34305727481842,60.6156754309506
22120,-0.343678742647171,60.4778101172896
22230,-0.344300240278244,60.3399381923347
22340,-0.344300240278244,59.9263356400579
22440,-0.341814309358597,60.2020728786738
22550,-0.342642962932587,60.2480279832274
22660,-0.34388592839241,60.2480279832274
22770,-0.342850118875504,60.3858932968884
22880,-0.34243580698967,60.3399315810407
22990,-0.34305727481842,60.1561045515321
23100,-0.34243580698967,60.2939698651931
23210,-0.34305727481842,60.2020596560858
23320,-0.342021465301514,60.5237519992553
23430,-0.343678742647171,60.2480213719334
23540,-0.34388592839241,59.8803673129162
23650,-0.34305727481842,59.6046300743004
23760,-0.342850118875504,59.6046300743004
23860,-0.344093084335327,59.0991107016223
23970,-0.342642962932587,59.3288862243905
24080,-0.342850118875504,59.2369760152832
24190,-0.343471586704254,59.0991107016223
24300,-0.34305727481842,59.2369760152832
24410,-0.342642962932587,59.2369760152832
24520,-0.34243580698967,59.4207964334978
24630,-0.342021465301514,59.5586683584527
24740,-0.343264430761337,59.6046234630064
24850,-0.343264430761337,59.65057856756
24960,-0.34305727481842,59.65057856756
25070,-0.34388592839241,59.2829245085428
25170,-0.34305727481842,59.5127066426051
25280,-0.342228621244431,59.4207964334978
25390,-0.342642962932587,59.4667515380514
25500,-0.344093084335327,59.3748347176501
25610,-0.343678742647171,59.3288796130965
25720,-0.342850118875504,59.4207898222038
25830,-0.343264430761337,59.3288796130965
25940,-0.342850118875504,59.4207898222038
26050,-0.342850118875504,59.650571956266
26160,-0.343471586704254,59.4207964334978
26270,-0.342850118875504,59.6046168517124
26380,-0.343264430761337,59.4207964334978
26490,-0.342642962932587,59.1910142994356
26590,-0.34305727481842,59.5127066426051
26700,-0.34305727481842,59.4667515380514
26810,-0.342850118875504,59.4667515380514
26920,-0.343264430761337,59.4207964334978
27030,-0.34305727481842,59.2829311198368
27140,-0.343678742647171,59.3288928356845
27250,-0.34243580698967,59.6046234630064
27360,-0.343678742647171,59.3288928356845
27470,-0.34243580698967,59.4667581493454
27580,-0.343471586704254,59.3288928356845
27690,-0.342850118875504,59.5586749697467
27800,-0.342021465301514,60.2480147606394
27900,-0.34305727481842,60.2480147606394
28010,-0.343471586704254,60.4777968947017
28120,-0.34305727481842,60.6156622083626
28230,-0.343264430761337,60.569707103809
28340,-0.343471586704254,60.5237519992553
28450,-0.342642962932587,60.8454443424248
28560,-0.341192841529846,61.2590468947017
28670,-0.343471586704254,61.1211815810407
28780,-0.344093084335327,61.1671366855944
28890,-0.344300240278244,61.0292647606394
29000,-0.343678742647171,60.7075724174699
29110,-0.342642962932587,60.6616173129162
29220,-0.343471586704254,60.6156622083626
29320,-0.343264430761337,60.431841790148
29430,-0.342850118875504,60.6156622083626
29540,-0.342642962932587,60.6616173129162
29650,-0.34388592839241,60.5237453879613
29760,-0.34243580698967,60.7535209107296
29870,-0.342642962932587,60.9373413289441
29980,-0.342642962932587,61.1671168517124
30090,-0.342850118875504,61.5347642994356
30200,-0.344300240278244,61.1671168517124
30310,-0.342642962932587,61.213071956266
30420,-0.344093084335327,60.9832898222038
30530,-0.343678742647171,61.1211617471587
30630,-0.343471586704254,61.0752066426051
30740,-0.34305727481842,60.9832964334978
30850,-0.344714552164078,60.431821956266
30960,-0.343264430761337,60.4777770608197
31070,-0.342642962932587,60.2939500313111
31180,-0.343471586704254,60.1560847176501
31290,-0.344300240278244,59.6965204495257
31400,-0.343471586704254,59.4667449267574
31510,-0.343471586704254,59.4207898222038
31620,-0.34388592839241,59.2369627926952
31730,-0.34243580698967,59.3748281063561
31840,-0.342642962932587,59.2369561814012
31950,-0.344300240278244,58.9152638382317
32050,-0.342850118875504,58.7773919132767
32160,-0.343471586704254,58.5476163905085
32270,-0.343471586704254,58.3178408677403
32380,-0.342642962932587,58.5016612859549
32490,-0.343264430761337,58.3637959722939
32600,-0.34305727481842,58.1799689427853
32710,-0.343264430761337,58.3637959722939
32820,-0.34305727481842,58.6395332109098
32930,-0.34305727481842,58.5016678972489
33040,-0.342850118875504,58.3178408677403
33150,-0.342642962932587,58.3637959722939
33260,-0.343471586704254,58.1799755540793
33360,-0.342850118875504,58.5016678972489
33470,-0.342850118875504,58.6854883154634
33580,-0.343471586704254,58.5016678972489
33690,-0.34160715341568,58.8233602404184
33800,-0.34305727481842,58.8233602404184
33910,-0.342228621244431,58.869321956266
34020,-0.342642962932587,58.9612321653733
34130,-0.341814309358597,59.3288796130965
34240,-0.342228621244431,59.6046168517124
34350,-0.342850118875504,59.7424821653733
34460,-0.342228621244431,59.650571956266
34570,-0.34305727481842,59.5127066426051
34680,-0.342642962932587,59.4207898222038
34780,-0.343678742647171,59.007187269927
34890,-0.34305727481842,58.7774051358647
35000,-0.342642962932587,58.6395332109098
35110,-0.342850118875504,58.5935781063561
35220,-0.343678742647171,58.7314500313111
35330,-0.341814309358597,58.8233602404184
35440,-0.34243580698967,58.9152704495257
35550,-0.343471586704254,58.4557127926952
35660,-0.343678742647171,58.1799821653733
35770,-0.34160715341568,58.3638091948819
35880,-0.343471586704254,58.4097642994356
35990,-0.343264430761337,58.3638091948819
36090,-0.342850118875504,58.5476296130965
36200,-0.343264430761337,58.7774117471587
36310,-0.343264430761337,59.007193881221
36420,-0.342850118875504,58.7774117471587
36530,-0.342642962932587,58.7774117471587
36640,-0.341399997472763,59.3288862243905
36750,-0.342850118875504,59.3288862243905
36860,-0.343264430761337,59.1450658061759
36970,-0.342850118875504,59.1910209107296
37080,-0.34243580698967,59.1910209107296
37190,-0.34305727481842,59.1910209107296
37300,-0.342642962932587,59.0531489857746
37410,-0.343264430761337,59.1450591948819
37510,-0.342642962932587,59.4207964334978
37620,-0.342850118875504,59.4667515380514
37730,-0.343678742647171,59.2829311198368
37840,-0.343264430761337,59.4667581493454
37950,-0.342642962932587,59.4667581493454
38060,-0.343264430761337,59.3748479402381
38170,-0.342642962932587,59.5586683584527
38280,-0.34305727481842,59.5586683584527
38390,-0.34388592839241,59.2829311198368
38500,-0.34305727481842,59.1450658061759
38610,-0.342850118875504,58.9612387766673
38720,-0.344093084335327,58.7774117471587
38820,-0.343264430761337,58.7774117471587
38930,-0.343678742647171,58.6395464334978
39040,-0.343678742647171,58.6855081493454
39150,-0.343264430761337,58.6395530447918
39260,-0.342642962932587,58.5476362243905
39370,-0.34305727481842,58.4557260152832
39480,-0.34388592839241,58.5016811198368
39590,-0.342642962932587,58.7314566426051
39700,-0.34388592839241,58.5016745085428
39810,-0.342850118875504,58.5935847176501
39920,-0.343678742647171,58.4097642994356
40030,-0.343471586704254,58.2718989857746
40140,-0.342642962932587,58.4557194039892
40240,-0.343678742647171,58.2718989857746
40350,-0.342228621244431,58.5016811198368
40460,-0.34305727481842,58.4097709107296
40570,-0.343264430761337,58.3638158061759
40680,-0.342228621244431,58.5476428356845
40790,-0.343264430761337,58.4557326265772
40900,-0.342228621244431,58.6855147606394
41010,-0.343264430761337,58.6395596560858
41120,-0.34388592839241,58.5935979402381
41230,-0.34305727481842,58.4557326265772
41340,-0.344507396221161,58.2719055970686
41450,-0.342850118875504,58.1799953879613
41550,-0.342642962932587,58.3638158061759
41660,-0.342642962932587,58.4097709107296
41770,-0.34388592839241,57.9961617471587
41880,-0.342850118875504,58.0421168517124
41990,-0.343471586704254,58.0421168517124
42100,-0.344093084335327,57.8123347176501
42210,-0.344300240278244,57.5825525835879
42320,-0.34243580698967,57.8123281063561
42430,-0.344300240278244,57.444680658633
42540,-0.34305727481842,57.0310781063561
42650,-0.343678742647171,56.9851230018025
42760,-0.342850118875504,57.2608602404184
42870,-0.343471586704254,57.444687269927
42970,-0.34243580698967,57.7204178972489
43080,-0.34305727481842,57.6285076881416
43190,-0.341192841529846,58.1340204495257
43300,-0.343264430761337,58.1340204495257
43410,-0.342642962932587,58.1799755540793
43520,-0.343678742647171,57.9502000313111
43630,-0.344300240278244,57.8582898222038
43740,-0.343471586704254,57.6285142994356
43850,-0.342642962932587,57.6285142994356
43960,-0.34243580698967,57.6744694039892
44070,-0.344093084335327,57.3987321653733
44180,-0.34243580698967,57.8123347176501
44280,-0.34160715341568,58.0421168517124
44390,-0.34388592839241,58.088071956266
44500,-0.343471586704254,58.1340270608197
44610,-0.343264430761337,58.1799821653733
44720,-0.342228621244431,58.3638091948819
44830,-0.343264430761337,58.6855015380514
44940,-0.34243580698967,58.869321956266
45050,-0.343678742647171,58.6395464334978
45160,-0.342850118875504,58.7774117471587
45270,-0.34305727481842,59.0531489857746
45380,-0.34305727481842,59.1450591948819
45490,-0.343264430761337,59.1910142994356
45600,-0.341399997472763,59.7424887766673
45700,-0.342021465301514,59.8344055970686
45810,-0.34388592839241,59.5586683584527
45920,-0.34305727481842,59.8344055970686
46030,-0.342642962932587,59.8803607016223
46140,-0.342642962932587,60.0641811198368
46250,-0.342021465301514,60.3858734630064
46360,-0.34243580698967,60.43182856756
46470,-0.344714552164078,60.1101362243905
46580,-0.341814309358597,60.3858734630064
46690,-0.342021465301514,60.6616107016223
46800,-0.34243580698967,60.7994760152832
46910,-0.343264430761337,60.7535209107296
47010,-0.343264430761337,60.6616107016223
47120,-0.34243580698967,60.7075658061759
47230,-0.343471586704254,60.7075658061759
47340,-0.342642962932587,60.7535209107296
47450,-0.34243580698967,60.8454311198368
47560,-0.344093084335327,60.7075591948819
47670,-0.343471586704254,60.2939566426051
47780,-0.34305727481842,60.2939566426051
47890,-0.344300240278244,59.8343923744806
48000,-0.34388592839241,59.5586551358647
48110,-0.34305727481842,59.2829178972489
48220,-0.343678742647171,58.9612255540793
48330,-0.342850118875504,58.9612255540793
48430,-0.34243580698967,58.9152638382317
48540,-0.34305727481842,58.9152638382317
48650,-0.342850118875504,58.869308733678
48760,-0.343471586704254,58.9152638382317
48870,-0.342642962932587,59.007174047339
48980,-0.342850118875504,58.9612189427853
49090,-0.341814309358597,59.1910010768476
49200,-0.34305727481842,59.3288663905085
49310,-0.343264430761337,59.007174047339
49420,-0.34305727481842,58.869308733678
49530,-0.342642962932587,59.0531291518926
49640,-0.342642962932587,59.2829046746609
49740,-0.342850118875504,59.007167436045
49850,-0.34243580698967,59.2369429588132
49960,-0.343264430761337,59.2369429588132
50070,-0.342228621244431,59.3748148837682
50180,-0.342642962932587,59.5126801974291
50290,-0.34305727481842,59.5586353019828
50400,-0.343471586704254,59.4207699883218
50510,-0.34305727481842,59.3288597792145
50620,-0.34305727481842,58.9612123314913
50730,-0.342850118875504,58.9612123314913
50840,-0.34388592839241,58.8233404065364
50950,-0.342850118875504,58.8233404065364
51060,-0.34388592839241,58.5016480633669
51160,-0.343264430761337,58.4556929588132
51270,-0.344300240278244,58.08804551109
51380,-0.341814309358597,58.4097378542596
51490,-0.34388592839241,58.1340006156437
51600,-0.342642962932587,58.1799557201973
51710,-0.342021465301514,58.5476031679205
51820,-0.343471586704254,58.5016480633669
51930,-0.342850118875504,58.4556929588132
52040,-0.34305727481842,58.5016480633669
52150,-0.344300240278244,58.1340006156437
52260,-0.343264430761337,58.08804551109
52370,-0.343264430761337,58.225917436045
52470,-0.34388592839241,58.0420904065364
52580,-0.342850118875504,58.0420904065364
52690,-0.342642962932587,58.3637827497059
52800,-0.34305727481842,58.4097378542596
52910,-0.342021465301514,58.7773853019828
53020,-0.342642962932587,59.007160824751
53130,-0.342642962932587,59.1450261384119
53240,-0.343471586704254,58.9612057201973
53350,-0.342021465301514,59.1909878542596
53460,-0.343264430761337,59.3288597792145
53570,-0.343471586704254,59.1450393609999
53680,-0.342850118875504,59.3748214950622
53790,-0.34305727481842,59.3288663905085
53890,-0.343678742647171,59.3288663905085
54000,-0.343471586704254,59.3288663905085
54110,-0.342642962932587,59.3288663905085
54220,-0.342021465301514,59.6965138382317
54330,-0.34243580698967,59.650552122384
54440,-0.343678742647171,59.5126868087231
54550,-0.342850118875504,59.6045970178304
54660,-0.344093084335327,59.1909878542596
54770,-0.34305727481842,59.2369429588132
54880,-0.343678742647171,58.9152506156437
54990,-0.34305727481842,58.9612057201973
55100,-0.341399997472763,59.5126801974291
55200,-0.34243580698967,59.65054551109
55310,-0.343471586704254,59.8803276451523
55420,-0.343678742647171,59.6965072269377
55530,-0.343264430761337,59.5586419132767
55640,-0.343264430761337,59.4207765996158
55750,-0.343471586704254,59.5126934200171
55860,-0.343678742647171,59.3288730018025
55970,-0.342642962932587,59.5126934200171
56080,-0.342021465301514,59.9722576881416
56190,-0.343471586704254,60.1560847176501
56300,-0.343678742647171,59.8803540903283
56410,-0.343264430761337,60.1101362243905
56520,-0.342850118875504,60.1560913289441
56620,-0.34243580698967,60.431821956266
56730,-0.341814309358597,60.6616040903283
56840,-0.343678742647171,60.6156489857746
56950,-0.34243580698967,60.6156489857746
57060,-0.342228621244431,60.7994760152832
57170,-0.343471586704254,60.2939632538991
57280,-0.342021465301514,60.569700492515
57390,-0.34305727481842,60.4777902834077
57500,-0.342850118875504,60.6616107016223
57610,-0.344507396221161,60.6156555970686
57720,-0.34388592839241,60.5237387766673
57830,-0.343471586704254,60.3399183584527
57930,-0.343471586704254,60.1101428356845
58040,-0.34305727481842,60.3399249697467
58150,-0.343264430761337,60.1561045515321
58260,-0.342850118875504,59.8803673129162
58370,-0.34305727481842,60.0641943424248
58480,-0.34305727481842,60.1561045515321
58590,-0.343678742647171,60.0641943424248
58700,-0.34305727481842,59.8803673129162
58810,-0.344093084335327,59.6965402834077
58920,-0.34388592839241,59.3748479402381
59030,-0.344921708106995,59.0991107016223
59140,-0.344714552164078,58.6855081493454
59250,-0.343678742647171,58.5476428356845
59350,-0.343264430761337,58.5016877311308
59460,-0.344507396221161,58.225950492515
59570,-0.343678742647171,57.7204377311308
59680,-0.34388592839241,57.30682856756
59790,-0.343678742647171,57.3527902834077
59900,-0.34243580698967,57.4906555970686
60010,-0.343264430761337,57.3527902834077
60120,-0.343264430761337,57.2149249697467
60230,-0.34305727481842,56.9851428356845
60340,-0.343471586704254,56.7553673129162
60450,-0.343264430761337,57.0770596560858
60560,-0.34305727481842,56.8013224174699
60660,-0.343264430761337,56.525585178854
60770,-0.343471586704254,56.2958096560858
60880,-0.342642962932587,56.4336749697467
60990,-0.343471586704254,56.3877198651931
61100,-0.344093084335327,56.0200724174699
61210,-0.343471586704254,56.0200724174699
61320,-0.344714552164078,55.5605147606394
61430,-0.343678742647171,55.2847841333175
61540,-0.343264430761337,55.4686111628261
61650,-0.343264430761337,55.5145662673798
61760,-0.343678742647171,55.3767009537188
61870,-0.34305727481842,55.6524381923347
61980,-0.342642962932587,55.9281754309506
62080,-0.343264430761337,55.8822203263969
62190,-0.344300240278244,55.744348401442
62300,-0.34388592839241,55.5145662673798
62410,-0.342642962932587,55.4686111628261
62520,-0.34388592839241,55.2847841333175
62630,-0.342850118875504,55.2847841333175
62740,-0.34160715341568,55.6983866855944
62850,-0.342642962932587,55.6983866855944
62960,-0.343471586704254,55.5605213719334
63070,-0.341814309358597,55.5605213719334
63180,-0.34305727481842,55.5605213719334
63290,-0.34388592839241,55.4226494469785
63390,-0.343264430761337,55.3766943424248
63500,-0.341814309358597,55.5605213719334
63610,-0.34160715341568,55.7903035059957
63720,-0.34305727481842,55.744348401442
63830,-0.34388592839241,55.4226560582725
63940,-0.342642962932587,55.5605213719334
64050,-0.342850118875504,55.4226494469785
64160,-0.343264430761337,55.2847841333175
64270,-0.343264430761337,55.2388290287639
64380,-0.342021465301514,55.5605213719334
64490,-0.344093084335327,55.3307392378712
64600,-0.343471586704254,55.2388290287639
64710,-0.343264430761337,55.1469188196566
64810,-0.342642962932587,55.4226560582725
64920,-0.34243580698967,55.5145662673798
65030,-0.342850118875504,55.744348401442
65140,-0.343471586704254,55.6983932968884
65250,-0.344507396221161,55.6524381923347
65360,-0.344093084335327,55.1469188196566
65470,-0.344093084335327,55.1009637151029
65580,-0.343264430761337,54.963098401442
65690,-0.343264430761337,54.6873611628261
65800,-0.342228621244431,54.963098401442
65910,-0.343678742647171,54.7792779832274
66020,-0.34388592839241,54.5954509537188
66120,-0.342228621244431,55.0550152218433
66230,-0.343471586704254,55.0090601172896
66340,-0.342850118875504,55.1009703263969
66450,-0.34243580698967,55.4226626695665
66560,-0.343471586704254,55.2847973559055
66670,-0.342850118875504,55.2388422513519
66780,-0.344300240278244,54.963105012736
66890,-0.343678742647171,54.5954575650128
67000,-0.343678742647171,54.3656820422446
67110,-0.342642962932587,54.3656820422446
67220,-0.344507396221161,54.1358999081824
67330,-0.34243580698967,54.0439830877811
67440,-0.343678742647171,53.9520728786738
67540,-0.342642962932587,54.1358932968884
67650,-0.34305727481842,54.0899381923347
67760,-0.344300240278244,53.8142009537188
67870,-0.342850118875504,53.9980213719334
67980,-0.34305727481842,54.0899315810407
68090,-0.342642962932587,54.0899315810407
68200,-0.343264430761337,53.8141943424248
68310,-0.343471586704254,53.5844188196566
68420,-0.344507396221161,53.400591790148
68530,-0.343264430761337,53.3086815810407
68640,-0.344714552164078,53.1708162673798
68750,-0.342228621244431,53.3546432968884
68850,-0.342850118875504,53.5384637151029
68960,-0.345336049795151,53.0329443424248
69070,-0.342850118875504,52.7112519992553
69180,-0.342850118875504,52.619341790148
69290,-0.342642962932587,52.8031622083626
69400,-0.343678742647171,52.8031622083626
69510,-0.342850118875504,52.8950724174699
69620,-0.342850118875504,52.9869826265772
69730,-0.342850118875504,53.1248479402381
69840,-0.344507396221161,52.9410209107296
69950,-0.343471586704254,52.757200492515
70060,-0.343264430761337,52.4814632538991
70170,-0.34243580698967,52.7112387766673
70270,-0.344093084335327,52.619321956266
70380,-0.342642962932587,52.757187269927
70490,-0.343678742647171,52.5733668517124
70600,-0.343264430761337,52.3895464334978
70710,-0.34305727481842,52.1138091948819
70820,-0.343264430761337,52.2057194039892
70930,-0.343264430761337,52.0218989857746
71040,-0.34305727481842,51.838071956266
71150,-0.34243580698967,52.0678474790343
71260,-0.34243580698967,51.975930658633
71370,-0.34305727481842,51.975930658633
71480,-0.34305727481842,51.9299755540793
71580,-0.34243580698967,52.3895332109098
71690,-0.342642962932587,52.6652704495257
71800,-0.343471586704254,52.6652704495257
71910,-0.342642962932587,52.8490908677403
72020,-0.344093084335327,52.619308733678
72130,-0.342228621244431,52.8490908677403
72240,-0.343678742647171,52.6652704495257
72350,-0.34388592839241,52.4814434200171
72460,-0.343471586704254,52.3895332109098
72570,-0.342642962932587,52.619308733678
72680,-0.342850118875504,52.6652638382317
72790,-0.344300240278244,52.619308733678
72900,-0.343264430761337,52.757180658633
73000,-0.342850118875504,53.2167383154634
73110,-0.34388592839241,53.400558733678
73220,-0.34243580698967,53.6762893609999
73330,-0.342850118875504,53.7681995701072
73440,-0.342850118875504,54.1358470178304
73550,-0.344093084335327,54.0439301974291
73660,-0.343471586704254,54.1358470178304
73770,-0.344921708106995,53.8601097792145
73880,-0.343678742647171,53.5843791518926
73990,-0.342021465301514,53.8601163905085
74100,-0.343264430761337,53.8601163905085
74210,-0.343264430761337,53.8141612859549
74310,-0.344300240278244,53.6303342564463
74420,-0.344300240278244,53.400552122384
74530,-0.342850118875504,53.4465072269377
74640,-0.343264430761337,53.4465072269377
74750,-0.342021465301514,53.7681995701072
74860,-0.344714552164078,53.3086419132767
74970,-0.342642962932587,53.4924623314913
75080,-0.343471586704254,53.6303342564463
75190,-0.344507396221161,53.400552122384
75300,-0.342642962932587,53.8601097792145
75410,-0.342642962932587,54.0898853019828
75520,-0.342642962932587,54.2277506156437
75630,-0.342642962932587,54.3656159293046
75730,-0.342850118875504,54.5494363475192
75840,-0.341399997472763,54.9170837952424
75950,-0.34243580698967,54.9630388997961
76060,-0.343678742647171,54.8711286906888
76170,-0.342850118875504,55.1928210338583
76280,-0.34243580698967,55.5145133770278
76390,-0.343264430761337,55.3766480633669
76500,-0.343264430761337,55.5145199883218
76610,-0.34305727481842,55.4685648837682
76720,-0.34243580698967,55.2847378542596
76830,-0.34305727481842,55.1928276451523
76940,-0.342850118875504,55.3306929588132
77050,-0.34388592839241,54.8711286906888
77150,-0.34305727481842,54.8711286906888
77260,-0.342850118875504,55.100910824751
77370,-0.343678742647171,55.0090006156437
77480,-0.34305727481842,54.7332633770278
77590,-0.34305727481842,54.4115710338583
77700,-0.343678742647171,54.2737057201973
77810,-0.343678742647171,54.319667436045
77920,-0.343678742647171,54.0898919132767
78030,-0.34388592839241,53.8601097792145
78140,-0.34305727481842,53.9060648837682
78250,-0.34243580698967,54.0898853019828
78360,-0.34305727481842,53.8601031679205
78460,-0.34388592839241,53.9060582724742
78570,-0.343471586704254,53.9060582724742
78680,-0.343471586704254,53.8601031679205
78790,-0.342850118875504,53.8141480633669
78900,-0.34243580698967,53.8141480633669
79010,-0.343471586704254,53.6762827497059
79120,-0.34243580698967,53.9060582724742
79230,-0.34305727481842,54.2277506156437
79340,-0.342850118875504,54.5034878542596
79450,-0.344300240278244,54.4575327497059
79560,-0.34305727481842,54.5034878542596
79670,-0.343678742647171,54.4115776451523
79780,-0.34243580698967,54.3656159293046
79880,-0.344093084335327,54.2736991089034
79990,-0.342642962932587,54.5494363475192
80100,-0.342642962932587,54.4575195271179
80210,-0.34243580698967,54.6872950498862
80320,-0.34243580698967,54.7792052589935
80430,-0.342642962932587,54.7332501544398
80540,-0.342850118875504,54.8711154681008
80650,-0.343264430761337,54.7792052589935
80760,-0.34243580698967,55.1928078112703
80870,-0.343471586704254,55.2387629158239
80980,-0.342228621244431,55.5604552589935
81090,-0.342850118875504,55.5145001544398
81190,-0.342642962932587,55.9281027067167
81300,-0.343264430761337,55.7442822885021
81410,-0.34305727481842,55.882147602163
81520,-0.34305727481842,55.7902373930557
81630,-0.34243580698967,55.9281027067167
81740,-0.342642962932587,56.2957501544398
81850,-0.343264430761337,56.2038399453325
81960,-0.34388592839241,56.0200129158239
82070,-0.342850118875504,55.9740578112703
82180,-0.34243580698967,56.1578782294849
82290,-0.343678742647171,56.1119231249312
82400,-0.343678742647171,56.2957501544398
82510,-0.342642962932587,56.4336154681008
82610,-0.341814309358597,57.0770001544398
82720,-0.34388592839241,56.7093460954227
82830,-0.34388592839241,56.4795639613604
82940,-0.342850118875504,57.0310384385922
83050,-0.342850118875504,57.0310384385922
83160,-0.342642962932587,57.0769935431458
83270,-0.34305727481842,56.9850833340385
83380,-0.342021465301514,57.3527307817617
83490,-0.34388592839241,57.1229486476995
83600,-0.34388592839241,56.8931665136372
83710,-0.342021465301514,57.0769935431458
83820,-0.34305727481842,57.3986858863154
83920,-0.34243580698967,57.6284614090836
84030,-0.342850118875504,57.7203716181909
84140,-0.34243580698967,57.7203716181909
84250,-0.343678742647171,57.8122884385922
84360,-0.344093084335327,57.4905960954227
84470,-0.342850118875504,57.6744165136372
84580,-0.342228621244431,57.9041986476995
84690,-0.343471586704254,57.8122884385922
84800,-0.344093084335327,57.6284614090836
84910,-0.343264430761337,57.6284614090836
85020,-0.34388592839241,57.444634379575
85130,-0.342642962932587,57.3986792750214
85240,-0.344507396221161,56.9391216181909
85340,-0.343264430761337,56.8931665136372
85450,-0.34388592839241,56.7093394841287
85560,-0.342850118875504,56.6174292750214
85670,-0.343678742647171,56.3876537522531
85780,-0.343264430761337,56.4336088568068
85890,-0.342850118875504,56.3876537522531
86000,-0.343264430761337,56.5714807817617
86110,-0.34305727481842,56.3876537522531
86220,-0.34305727481842,56.5255190659141
86330,-0.342850118875504,56.7553011999763
86440,-0.344093084335327,56.6174292750214
86550,-0.342642962932587,56.6174292750214
86650,-0.34305727481842,56.5714741704677
86760,-0.34305727481842,56.8472114090836
86870,-0.344093084335327,56.663384379575
86980,-0.343471586704254,56.5255190659141
87090,-0.342642962932587,56.80125630453
87200,-0.343471586704254,56.5714807817617
87310,-0.342850118875504,56.5714807817617
87420,-0.342642962932587,56.6174358863154
87530,-0.343471586704254,56.7553078112703
87640,-0.343264430761337,56.8012629158239
87750,-0.344093084335327,56.9850833340385
87860,-0.34243580698967,57.2608139613604
87970,-0.343471586704254,56.9391216181909
88070,-0.343471586704254,56.8931665136372
88180,-0.34305727481842,56.9391216181909
88290,-0.34388592839241,57.0310318272982
88400,-0.343264430761337,57.2608139613604
88510,-0.344300240278244,56.9391216181909
88620,-0.34305727481842,56.9850767227445
88730,-0.343471586704254,56.663384379575
88840,-0.343264430761337,56.9850767227445
88950,-0.343678742647171,56.7553011999763
89060,-0.343678742647171,56.7093460954227
89170,-0.34160715341568,57.3527307817617
89280,-0.344300240278244,56.9850833340385
89380,-0.34243580698967,57.0310384385922
89490,-0.34305727481842,56.9391282294849
89600,-0.342642962932587,56.9391282294849
89710,-0.34388592839241,56.7093460954227
89820,-0.343678742647171,56.2038333340385
89930,-0.343264430761337,56.0200129158239
90040,-0.34388592839241,55.9740511999763
90150,-0.344093084335327,55.6983139613604
90260,-0.343264430761337,55.5144935431458
90370,-0.343471586704254,55.4685384385922
90480,-0.343264430761337,55.4685384385922
90590,-0.344507396221161,55.1468460954227
90700,-0.343678742647171,54.8711154681008
90800,-0.343264430761337,54.8251603635471
90910,-0.342228621244431,54.9630322885021
91020,-0.342642962932587,55.2387695271179
91130,-0.343264430761337,55.1928144225643
91240,-0.343678742647171,55.0089940043497
91350,-0.34305727481842,55.1468593180106
91460,-0.342850118875504,55.1928144225643
91570,-0.343678742647171,55.0549491089034
91680,-0.342850118875504,55.2387695271179
91790,-0.34243580698967,55.5145001544398
91900,-0.342850118875504,55.6983205726544
92010,-0.343264430761337,55.8361924976094
92110,-0.34305727481842,55.8361924976094
92220,-0.343264430761337,55.6523720793948
92330,-0.34305727481842,55.6523720793948
92440,-0.342850118875504,55.882154213457
92550,-0.345128864049912,55.5145067657338
92660,-0.344507396221161,55.2847246316716
92770,-0.344093084335327,55.0089873930557
92880,-0.343264430761337,54.8251669748411
92990,-0.342228621244431,55.100904213457
93100,-0.342228621244431,55.1468659293046
93210,-0.342850118875504,55.1928210338583
93320,-0.34388592839241,54.9630388997961
93430,-0.343264430761337,55.1928210338583
93530,-0.343678742647171,55.0549557201973
93640,-0.342642962932587,55.2847312429656
93750,-0.34305727481842,55.1468659293046
93860,-0.34305727481842,55.3766480633669
93970,-0.34305727481842,55.2847378542596
94080,-0.345336049795151,54.6873082724742
94190,-0.342850118875504,54.5953980633669
94300,-0.343264430761337,54.4115776451523
94410,-0.344300240278244,54.0439301974291
94520,-0.343264430761337,53.9520199883218
94630,-0.344093084335327,53.7681929588132
94740,-0.34305727481842,53.6303276451523
94840,-0.342850118875504,53.7681929588132
94950,-0.342850118875504,53.6303210338583
95060,-0.342228621244431,53.7681929588132
95170,-0.342642962932587,53.7681929588132
95280,-0.343678742647171,0
95390,-0.343471586704254,100
95500,-0.342850118875504,52.9291536289742
95610,-0.342228621244431,30.356229962185
95720,-0.342850118875504,30.2446251130338
95830,-0.343678742647171,30.0214154147314
95940,-0.343264430761337,30.3562460181265
96050,-0.343264430761337,30.1330363198241
96160,-0.343471586704254,29.575012074068
96260,-0.34388592839241,38.2814185847869
96370,-0.34305727481842,38.5743767982377
96480,-0.34305727481842,38.3790713226038
96590,-0.34388592839241,37.40251584697
96700,-0.343264430761337,37.695488109153
96810,-0.343471586704254,37.8908076335192
96920,-0.34305727481842,37.7931548957022
97030,-0.343471586704254,37.5001966822514
97140,-0.343264430761337,37.2072384688006
97250,-0.34243580698967,37.5001966822514
97360,-0.342642962932587,37.2072244200683
97470,-0.342850118875504,37.6955021578853
97570,-0.342850118875504,38.1837798957022
97680,-0.343471586704254,37.5001966822514
97790,-0.34388592839241,37.1095716822514
97900,-0.342642962932587,37.0119189444345
98010,-0.344714552164078,57.4215097285827
98120,-0.342850118875504,57.2913045172273
98230,-0.342850118875504,57.5517149399381
98340,-0.343678742647171,57.6819295172273
98450,-0.34305727481842,57.6168269115496
98560,-0.34243580698967,57.5517149399381
98670,-0.344300240278244,57.2912951512936
98780,-0.342228621244431,57.8772373342604
98890,-0.34243580698967,58.1376477569713
98990,-0.343678742647171,58.2027597285827
99100,-0.34305727481842,58.0725545172273
99210,-0.343678742647171,58.3329743058719
99320,-0.343264430761337,58.3329743058719
99430,-0.344300240278244,58.2027690945165
99540,-0.342228621244431,58.3980862774834
99650,-0.34305727481842,58.5933940945165
99760,-0.342642962932587,58.7887019115496
99870,-0.34305727481842,58.7235993058719
99980,-0.34305727481842,58.7887019115496
100090,-0.343471586704254,58.6584967001942
100200,-0.343678742647171,58.4631888831611
100300,-0.342850118875504,58.4631888831611
100410,-0.343264430761337,58.7236086718057
100520,-0.344093084335327,58.267881066128
100630,-0.343264430761337,58.2027784604503
100740,-0.343264430761337,58.1376758547726
100850,-0.344507396221161,58.0074706434172
100960,-0.343678742647171,57.9423680377395
101070,-0.34305727481842,57.8121628263841
101180,-0.342228621244431,58.2027878263841
101290,-0.34388592839241,57.8772654320618
101400,-0.342850118875504,57.8121628263841
101510,-0.34388592839241,57.6819482490949
101620,-0.343264430761337,57.6819482490949
101720,-0.343678742647171,57.8121628263841
101830,-0.34305727481842,57.616855009351
101940,-0.342850118875504,57.8121628263841
102050,-0.343678742647171,57.7470602207064
102160,-0.34305727481842,57.7470602207064
102270,-0.343264430761337,57.9423774036732
102380,-0.344093084335327,57.6819576150287
102490,-0.342228621244431,58.3330024036732
102600,-0.343264430761337,58.2678997979955
102710,-0.343471586704254,58.2678997979955
102820,-0.34305727481842,58.3330024036732
102930,-0.342850118875504,58.5934128263841
103030,-0.34388592839241,58.5283008547726
103140,-0.344921708106995,57.4866404320618
103250,-0.344300240278244,57.4866404320618
103360,-0.343264430761337,57.226230009351
103470,-0.342850118875504,57.2913326150287
103580,-0.342642962932587,57.2913326150287
103690,-0.344300240278244,57.1611274036732
103800,-0.342642962932587,57.4866404320618
103910,-0.344507396221161,57.0960154320618
104020,-0.34305727481842,57.3564352207064
104130,-0.343471586704254,57.5517524036732
104240,-0.342642962932587,57.7470602207064
104350,-0.342642962932587,58.0074706434172
104450,-0.34305727481842,58.0725732490949
104560,-0.342228621244431,58.7887206434172
104670,-0.343678742647171,58.7887206434172
104780,-0.342642962932587,58.9840284604503
104890,-0.344093084335327,58.3980862774834
105000,-0.34243580698967,58.4631888831611
105110,-0.343471586704254,58.3980862774834
105220,-0.342850118875504,58.6584967001942
105330,-0.342850118875504,58.7235993058719
105440,-0.343678742647171,58.4631888831611
105550,-0.343264430761337,58.5933940945165
105660,-0.342642962932587,58.6584967001942
105760,-0.342228621244431,58.7236086718057
105870,-0.34305727481842,58.658506066128
105980,-0.342228621244431,58.9840284604503
106090,-0.342642962932587,59.1142336718057
106200,-0.344507396221161,58.7236086718057
106310,-0.343471586704254,58.5934034604503
106420,-0.343264430761337,58.4631982490949
106530,-0.34388592839241,58.8538138831611
106640,-0.343264430761337,59.2444388831611
106750,-0.342021465301514,59.8954836718057
106860,-0.344093084335327,59.6350638831611
106970,-0.343471586704254,59.2444388831611
107080,-0.34388592839241,58.7235993058719
107180,-0.342850118875504,58.7235993058719
107290,-0.342850118875504,59.0491217001942
107400,-0.344093084335327,58.7887019115496
107510,-0.34305727481842,58.9840097285827
107620,-0.34305727481842,58.8538045172273
107730,-0.342228621244431,59.1142243058719
107840,-0.342228621244431,59.3746440945165
107950,-0.343264430761337,59.3095414888388
108060,-0.343471586704254,59.8954836718057
108170,-0.343678742647171,59.6350732490949
108280,-0.343471586704254,59.5699706434172
108390,-0.34388592839241,59.7001758547726
108490,-0.343264430761337,59.7001758547726
108600,-0.34388592839241,59.7652784604503
108710,-0.344093084335327,59.439756066128
108820,-0.34388592839241,59.1142336718057
108930,-0.34305727481842,59.049131066128
109040,-0.342228621244431,59.049131066128
109150,-0.343264430761337,58.8538232490949
109260,-0.341399997472763,59.5699612774834
109370,-0.344507396221161,59.2444388831611
109480,-0.34305727481842,59.1793362774834
109590,-0.343471586704254,58.7887112774834
109700,-0.342642962932587,58.8538138831611
109810,-0.34243580698967,59.2444295172273
109910,-0.34305727481842,59.309532122905
110020,-0.342850118875504,59.4397373342604
110130,-0.344921708106995,58.9840097285827
110240,-0.343471586704254,59.1142243058719
110350,-0.343678742647171,58.9189164888388
110460,-0.343264430761337,58.8538138831611
110570,-0.34243580698967,59.3095414888388
110680,-0.343678742647171,59.1793362774834
110790,-0.343678742647171,59.1142336718057
110900,-0.343471586704254,58.9840284604503
111010,-0.342021465301514,59.439756066128
111120,-0.344093084335327,59.1793362774834
111220,-0.343264430761337,58.9189258547726
111330,-0.344300240278244,58.3980956434172
111440,-0.343264430761337,58.2678904320618
111550,-0.34305727481842,58.2027878263841
111660,-0.343471586704254,58.2027878263841
111770,-0.343264430761337,58.398105009351
111880,-0.343471586704254,58.1376945866401
111990,-0.34243580698967,58.8538326150287
112100,-0.342642962932587,58.9189352207064
112210,-0.343471586704254,58.7236274036732
112320,-0.34388592839241,58.6585154320618
112430,-0.34243580698967,58.8538232490949
112540,-0.342642962932587,58.7887206434172
112640,-0.342850118875504,59.2444482490949
112750,-0.342021465301514,59.3095508547726
112860,-0.343678742647171,58.9189352207064
112970,-0.34388592839241,58.8538232490949
113080,-0.342850118875504,58.9189258547726
113190,-0.343678742647171,58.9189258547726
113300,-0.34243580698967,59.1793362774834
113410,-0.343264430761337,59.5048586718057
113520,-0.342850118875504,59.3095414888388
113630,-0.34305727481842,59.3095414888388
113740,-0.343471586704254,59.049131066128
113850,-0.342850118875504,59.1142336718057
113950,-0.34388592839241,58.8538138831611
114060,-0.343678742647171,58.7887112774834
114170,-0.34305727481842,58.9840190945165
114280,-0.344507396221161,58.4631888831611
114390,-0.34243580698967,58.7235993058719
114500,-0.342642962932587,59.1793269115496
114610,-0.344300240278244,58.8538045172273
114720,-0.343678742647171,58.7235993058719
114830,-0.34388592839241,58.918907122905
114940,-0.34388592839241,58.8537951512936
115050,-0.342850118875504,58.9188977569713
115160,-0.342642962932587,58.7886831796821
115270,-0.343264430761337,58.984000362649
115370,-0.343264430761337,58.8537951512936
115480,-0.343264430761337,59.0491123342604
115590,-0.343471586704254,58.9840097285827
115700,-0.342021465301514,59.5048399399381
115810,-0.343471586704254,59.3746347285827
115920,-0.342850118875504,59.3746347285827
116030,-0.344093084335327,59.2444201512936
116140,-0.341814309358597,59.6350451512936
116250,-0.343471586704254,59.5699425456158
116360,-0.342642962932587,60.0256701512936
116470,-0.342850118875504,59.8303529683267
116580,-0.342850118875504,59.9605581796821
116680,-0.343264430761337,60.0256607853598
116790,-0.342850118875504,60.0907633910375
116900,-0.34243580698967,60.2209686023929
117010,-0.343264430761337,60.4162857853598
117120,-0.343678742647171,60.8069107853598
117230,-0.343471586704254,61.0673305740044
117340,-0.34305727481842,61.1324331796821
117450,-0.342642962932587,61.1975357853598
117560,-0.343471586704254,60.937125362649
117670,-0.344507396221161,60.8720227569713
117780,-0.343471586704254,60.6116123342604
117890,-0.34388592839241,60.8069201512936
118000,-0.34305727481842,60.8069201512936
118100,-0.343678742647171,60.7418175456158
118210,-0.34243580698967,60.8069201512936
118320,-0.342021465301514,61.0022373342604
118430,-0.342642962932587,61.1324425456158
118540,-0.34305727481842,60.8720227569713
118650,-0.343264430761337,61.0022279683267
118760,-0.343264430761337,60.8069201512936
118870,-0.343471586704254,61.0022373342604
118980,-0.34305727481842,60.8069295172273
119090,-0.342642962932587,61.0673399399381
119200,-0.343264430761337,60.9371347285827
119310,-0.343264430761337,60.8069295172273
119410,-0.342642962932587,61.1324425456158
119520,-0.343678742647171,61.0022373342604
119630,-0.342850118875504,60.9371347285827
119740,-0.343264430761337,60.6116123342604
119850,-0.343264430761337,60.5465097285827
119960,-0.343264430761337,60.2209873342604
120070,-0.34388592839241,59.8303623342604
120180,-0.344093084335327,59.9605675456158
120290,-0.34305727481842,60.0907727569713
120400,-0.34243580698967,60.3511831796821
120510,-0.342642962932587,60.7418081796821
120620,-0.341814309358597,61.1975357853598
120730,-0.343678742647171,60.6767055740044
120830,-0.34305727481842,61.0022279683267
120940,-0.343264430761337,61.0673305740044
121050,-0.34243580698967,61.5230581796821
121160,-0.343471586704254,61.327750362649
121270,-0.34305727481842,61.2626477569713
121380,-0.34388592839241,61.327750362649
121490,-0.342642962932587,61.4579555740044
121600,-0.34305727481842,61.4579555740044
121710,-0.34243580698967,61.3928436023929
121820,-0.34388592839241,60.8720040251037
121930,-0.342642962932587,61.0673118421368
122040,-0.342228621244431,61.4579368421368
122140,-0.344714552164078,61.1324144478145
122250,-0.34388592839241,61.0021998705253
122360,-0.343471586704254,61.1324144478145
122470,-0.34305727481842,61.1975170534922
122580,-0.343678742647171,61.2626290251037
122690,-0.344300240278244,61.197526419426
122800,-0.344507396221161,61.0022186023929
122910,-0.343264430761337,60.9371159967152
123020,-0.34388592839241,60.416276419426
123130,-0.343678742647171,60.2860712080706
123240,-0.34305727481842,59.7652409967152
123350,-0.345128864049912,59.5699331796821
123460,-0.343678742647171,59.374625362649
123560,-0.345336049795151,58.7886831796821
123670,-0.343264430761337,58.593375362649
123780,-0.34305727481842,58.3980675456158
123890,-0.34388592839241,58.1376477569713
124000,-0.343678742647171,57.8772373342604
124110,-0.34388592839241,58.202750362649
124220,-0.34388592839241,58.0725357853598
124330,-0.344507396221161,57.8121159967152
124440,-0.34388592839241,57.6167988137483
124550,-0.342850118875504,57.4865936023929
124660,-0.342642962932587,57.8121066307814
124770,-0.343471586704254,57.8772092364591
124870,-0.343264430761337,57.9423118421368
124980,-0.344300240278244,57.2261644478145
125090,-0.344714552164078,57.0308566307814
125200,-0.342228621244431,57.3563790251037
125310,-0.343264430761337,57.681901419426
125420,-0.34243580698967,57.9423118421368
125530,-0.34388592839241,57.6818920534922
125640,-0.342228621244431,58.0725170534922
125750,-0.34243580698967,58.332927476203
125860,-0.344300240278244,58.0725076875584
125970,-0.343678742647171,57.6818920534922
126080,-0.34388592839241,57.2912670534922
126190,-0.342642962932587,57.551677476203
126290,-0.343678742647171,57.6167894478145
126400,-0.343471586704254,57.291276419426
126510,-0.344300240278244,56.7704462080706
126620,-0.343471586704254,56.5751383910375
126730,-0.342850118875504,56.3147186023929
126840,-0.343264430761337,56.4449238137483
126950,-0.343678742647171,56.5100357853598
127060,-0.342228621244431,56.7053529683267
127170,-0.34388592839241,56.6402409967152
127280,-0.34243580698967,56.6402409967152
127390,-0.343264430761337,56.6402409967152
127500,-0.343471586704254,56.4449331796821
127600,-0.343678742647171,56.249625362649
127710,-0.343264430761337,56.3147279683267
127820,-0.34388592839241,55.9892055740044
127930,-0.344714552164078,55.7287951512936
128040,-0.344300240278244,55.5334779683267
128150,-0.342850118875504,55.5985805740044
128260,-0.342228621244431,56.3147279683267
128370,-0.343264430761337,56.0543175456158
128480,-0.344093084335327,55.5985899399381
128590,-0.344093084335327,55.6636925456158
128700,-0.342642962932587,55.9892055740044
128810,-0.34388592839241,55.9892055740044
128920,-0.343264430761337,56.1845227569713
129020,-0.34388592839241,55.859000362649
129130,-0.343264430761337,55.6636925456158
129240,-0.344921708106995,55.1428623342604
129350,-0.342850118875504,55.2730675456158
129460,-0.34243580698967,55.5334779683267
129570,-0.344093084335327,55.3381607853598
129680,-0.34388592839241,54.7522186023929
129790,-0.342642962932587,55.0126290251037
129900,-0.343264430761337,54.8824238137483
130010,-0.342850118875504,55.2730488137483
130120,-0.344093084335327,54.556901419426
130230,-0.343264430761337,54.6220040251037
130330,-0.34305727481842,54.4917988137483
130440,-0.343678742647171,54.2313883910375
130550,-0.343678742647171,53.9709779683267
130660,-0.342228621244431,54.296500362649
130770,-0.343471586704254,54.1011925456158
130880,-0.340985685586929,54.5569201512936
130990,-0.342642962932587,54.7522279683267
131100,-0.343678742647171,54.7522279683267
131210,-0.343678742647171,54.687125362649
131320,-0.34388592839241,54.4267055740044
131430,-0.343678742647171,54.1011925456158
131540,-0.342642962932587,54.3616029683267
131650,-0.34243580698967,55.0126383910375
131750,-0.344093084335327,54.8173212080706
131860,-0.343471586704254,54.9475357853598
131970,-0.343678742647171,54.7522279683267
132080,-0.344093084335327,54.6220133910375
132190,-0.34305727481842,54.4267055740044
132300,-0.343471586704254,53.9709779683267
132410,-0.342642962932587,53.9709779683267
132520,-0.343264430761337,53.905875362649
132630,-0.342642962932587,54.1011831796821
132740,-0.343678742647171,53.9709779683267
132850,-0.342642962932587,54.2313883910375
132960,-0.34305727481842,54.2313883910375
133060,-0.34305727481842,54.1011831796821
133170,-0.344093084335327,53.8407633910375
133280,-0.34305727481842,53.9058659967152
133390,-0.342642962932587,53.9058659967152
133500,-0.342850118875504,54.166276419426
133610,-0.343264430761337,54.0360712080706
133720,-0.34388592839241,53.8407540251037
133830,-0.343678742647171,53.7105488137483
133940,-0.342850118875504,53.8407540251037
134050,-0.342850118875504,54.166276419426
134160,-0.343471586704254,54.3615936023929
134270,-0.34305727481842,54.3615936023929
134380,-0.342850118875504,54.2313883910375
134480,-0.343264430761337,54.0360805740044
134590,-0.344093084335327,53.3199331796821
134700,-0.343264430761337,53.4501383910375
134810,-0.342021465301514,53.7756607853598
134920,-0.343678742647171,53.6454555740044
135030,-0.34388592839241,53.1897279683267
135140,-0.34388592839241,53.0595133910375
135250,-0.342850118875504,53.1246159967152
135360,-0.34388592839241,53.1246159967152
135470,-0.342850118875504,53.0595133910375
135580,-0.344093084335327,52.7339909967152
135690,-0.343264430761337,52.4735805740044
135790,-0.343471586704254,52.6037951512936
135900,-0.34305727481842,52.4735899399381
136010,-0.343264430761337,52.1480675456158
136120,-0.343471586704254,52.5386925456158
136230,-0.342850118875504,52.8642149399381
136340,-0.343471586704254,52.8642149399381
136450,-0.343264430761337,52.7991123342604
136560,-0.341814309358597,53.3850451512936
136670,-0.344093084335327,53.4501477569713
136780,-0.343264430761337,53.8407727569713
136890,-0.343678742647171,53.7105675456158
137000,-0.343471586704254,53.840782122905
137110,-0.343678742647171,53.840782122905
137210,-0.34388592839241,53.5803623342604
137320,-0.34305727481842,54.2313977569713
137430,-0.343471586704254,54.296500362649
137540,-0.344714552164078,54.4918175456158
137650,-0.342850118875504,54.6220227569713
137760,-0.343471586704254,54.4918175456158
137870,-0.343471586704254,54.622032122905
137980,-0.34243580698967,55.0126477569713
138090,-0.342642962932587,55.4032727569713
138200,-0.34305727481842,55.6636925456158
138310,-0.342850118875504,56.1845227569713
138420,-0.343264430761337,56.3798399399381
138520,-0.34388592839241,56.0543175456158
138630,-0.343678742647171,55.7288045172273
138740,-0.34305727481842,55.8590097285827
138850,-0.344300240278244,55.5334873342604
138960,-0.342850118875504,55.9892149399381
139070,-0.343264430761337,56.4449425456158
139180,-0.343471586704254,56.0543175456158
139290,-0.342642962932587,56.249625362649
139400,-0.34305727481842,56.0543175456158
139510,-0.343678742647171,56.1194295172273
139620,-0.343471586704254,55.7288045172273
139730,-0.344507396221161,55.0777690945165
139840,-0.343264430761337,55.4032914888388
139940,-0.342850118875504,55.6637019115496
140050,-0.34305727481842,55.9241217001942
140160,-0.343264430761337,55.7288138831611
140270,-0.34388592839241,55.6637019115496
140380,-0.343678742647171,55.5985993058719
140490,-0.343264430761337,55.9241217001942
140600,-0.34388592839241,55.793907122905
140710,-0.342850118875504,55.793907122905
140820,-0.344507396221161,55.403282122905
140930,-0.342850118875504,55.6636925456158
141040,-0.343678742647171,55.2079649399381
141150,-0.34305727481842,55.4683847285827
141250,-0.343264430761337,55.2079743058719
141360,-0.343678742647171,55.0777690945165
141470,-0.343264430761337,55.1428717001942
141580,-0.34305727481842,55.3381795172273
141690,-0.343264430761337,55.3381795172273
141800,-0.342642962932587,55.7288045172273
141910,-0.342642962932587,56.3798399399381
142020,-0.342642962932587,56.9006701512936
142130,-0.343264430761337,56.7704649399381
142240,-0.34305727481842,56.5100451512936
142350,-0.343264430761337,56.5100451512936
142460,-0.343471586704254,56.7053623342604
142570,-0.342642962932587,57.1610899399381
142670,-0.343471586704254,56.9006795172273
142780,-0.342642962932587,57.2913045172273
142890,-0.341814309358597,57.747032122905
143000,-0.343471586704254,57.8772467001942
143110,-0.34243580698967,58.137657122905
143220,-0.342228621244431,58.9840097285827
143330,-0.34388592839241,58.6584873342604
143440,-0.343471586704254,58.3329743058719
143550,-0.342642962932587,58.7887019115496
143660,-0.343678742647171,58.8538138831611
143770,-0.343471586704254,58.5934034604503
143880,-0.344093084335327,58.3329836718057
143980,-0.342850118875504,58.3329836718057
144090,-0.342850118875504,58.7236086718057
144200,-0.342642962932587,58.9189164888388
144310,-0.342850118875504,58.9840190945165
144420,-0.344093084335327,58.8538045172273
144530,-0.342642962932587,59.1793175456158
144640,-0.343678742647171,58.7235899399381
144750,-0.342642962932587,58.984000362649
144860,-0.342021465301514,58.6584873342604
144970,-0.343264430761337,58.4631795172273
145080,-0.342642962932587,58.7886925456158
145190,-0.34305727481842,58.984000362649
145300,-0.34388592839241,58.984000362649
145400,-0.34305727481842,59.1793081796821
145510,-0.343471586704254,58.9188977569713
145620,-0.342850118875504,58.7886925456158
145730,-0.34243580698967,59.3095227569713
145840,-0.343264430761337,59.374625362649
145950,-0.342642962932587,59.7001383910375
146060,-0.343471586704254,59.8954555740044
146170,-0.34243580698967,60.0907633910375
146280,-0.343471586704254,60.0907633910375
146390,-0.343471586704254,59.8303529683267
146500,-0.344714552164078,59.374625362649
146610,-0.342642962932587,59.374625362649
146710,-0.343471586704254,59.4397279683267
146820,-0.342850118875504,59.374625362649
146930,-0.34388592839241,59.1142055740044
147040,-0.343471586704254,58.984000362649
147150,-0.34388592839241,59.0491029683267
147260,-0.342228621244431,59.3095227569713
147370,-0.342850118875504,59.2444201512936
147480,-0.343264430761337,59.1142149399381
147590,-0.34243580698967,59.374625362649
147700,-0.34305727481842,59.6350451512936
147810,-0.34243580698967,60.0256607853598
147920,-0.34388592839241,59.7001383910375
148030,-0.34243580698967,59.8303436023929
148130,-0.343678742647171,59.7652409967152
148240,-0.343471586704254,59.6350357853598
148350,-0.34388592839241,59.3095133910375
148460,-0.34305727481842,59.3746159967152
148570,-0.34305727481842,59.7001383910375
148680,-0.34160715341568,60.2209686023929
148790,-0.342642962932587,60.025651419426
148900,-0.34160715341568,60.6766868421368
149010,-0.34388592839241,60.6766868421368
149120,-0.343264430761337,60.8720040251037
149230,-0.343471586704254,60.6766962080706
149340,-0.34243580698967,61.1324238137483
149440,-0.34243580698967,61.2626290251037
149550,-0.344507396221161,61.1324238137483
149660,-0.343471586704254,61.0673212080706
149770,-0.34305727481842,61.197526419426
149880,-0.343471586704254,61.0673212080706
149990,-0.34305727481842,61.1324238137483
150100,-0.34305727481842,61.2626290251037
150210,-0.343264430761337,61.1324238137483
150320,-0.342021465301514,61.588151419426
150430,-0.343264430761337,61.588151419426
150540,-0.34305727481842,61.197526419426
150650,-0.342850118875504,61.588151419426
150760,-0.34388592839241,61.3928342364591
150860,-0.344093084335327,61.2626196591699
150970,-0.342642962932587,61.5230300818807
151080,-0.343264430761337,61.6532352932362
151190,-0.343264430761337,61.848552476203
151300,-0.34305727481842,61.848552476203
151410,-0.342228621244431,62.239177476203
151520,-0.344507396221161,62.3042800818807
151630,-0.344093084335327,61.9136550818807
151740,-0.343471586704254,61.9136550818807
151850,-0.34243580698967,62.2391681102693
151960,-0.343471586704254,61.9136550818807
152070,-0.34388592839241,61.5230300818807
152170,-0.34305727481842,61.5230300818807
152280,-0.343471586704254,61.3277222648476
152390,-0.34305727481842,61.3928248705253
152500,-0.34305727481842,61.6532446591699
152610,-0.344921708106995,61.2626196591699
152720,-0.343678742647171,61.0673118421368
152830,-0.342642962932587,61.5881420534922
152940,-0.344093084335327,61.1975170534922
153050,-0.34388592839241,61.0021998705253
153160,-0.34243580698967,61.3277128989139
153270,-0.343471586704254,61.067302476203
153380,-0.342850118875504,61.1324050818807
153490,-0.34305727481842,61.3277128989139
153590,-0.343264430761337,61.3928155045916
153700,-0.343264430761337,61.7834405045916
153810,-0.34305727481842,61.8485431102693
153920,-0.343678742647171,61.5881326875584
154030,-0.343264430761337,61.5230300818807
154140,-0.343264430761337,61.5230300818807
154250,-0.345128864049912,61.1324144478145
154360,-0.344093084335327,61.0021998705253
154470,-0.34243580698967,61.2626102932362
154580,-0.343264430761337,61.457927476203
154690,-0.344093084335327,61.067302476203
154800,-0.343264430761337,61.457927476203
154900,-0.342642962932587,61.5230300818807
155010,-0.344300240278244,61.3277128989139
155120,-0.343678742647171,61.1324050818807
155230,-0.342021465301514,61.5230300818807
155340,-0.34388592839241,0
155450,-0.34160715341568,31.250347390241
155560,-0.34388592839241,30.9662536945974
155670,-0.345128864049912,54.9170904065364
155780,-0.342850118875504,54.8711353019828
155890,-0.344093084335327,54.5494429588132
156000,-0.34388592839241,54.2737057201973
156110,-0.343471586704254,54.2277506156437
156220,-0.343264430761337,54.18179551109
156320,-0.342642962932587,54.319660824751
156430,-0.34388592839241,54.2277440043497
156540,-0.344921708106995,53.7222312429656
156650,-0.342228621244431,53.9979684815815
156760,-0.343471586704254,53.8141480633669
156870,-0.344300240278244,53.2626735861351
156980,-0.342850118875504,53.4005388997961
157090,-0.342642962932587,53.3545837952424
157200,-0.34305727481842,53.1707567657338
157310,-0.343264430761337,53.3086286906888
157420,-0.344714552164078,53.0328914520729
157530,-0.343264430761337,52.8950261384119
157640,-0.342850118875504,53.0788465566265
157740,-0.343264430761337,53.1248016611802
157850,-0.343471586704254,53.2626735861351
157960,-0.344507396221161,52.8950261384119
158070,-0.34160715341568,53.1707633770278
158180,-0.34243580698967,53.2167184815815
158290,-0.343264430761337,53.1248082724742
158400,-0.342228621244431,53.538417436045
158510,-0.34305727481842,53.4465072269377
158620,-0.34388592839241,53.40054551109
158730,-0.34305727481842,53.3086353019828
158840,-0.34305727481842,53.0788531679205
158950,-0.34305727481842,53.1248082724742
159050,-0.342850118875504,53.0788531679205
159160,-0.343678742647171,52.9409878542596
159270,-0.342228621244431,53.3086419132767
159380,-0.344300240278244,53.0329046746609
159490,-0.342228621244431,53.3086419132767
159600,-0.34305727481842,53.2626868087231
159710,-0.34243580698967,53.2626868087231
159820,-0.34305727481842,53.3086419132767
159930,-0.34243580698967,53.3545970178304
160040,-0.343678742647171,53.3086419132767
160150,-0.344507396221161,52.8490842564463
160260,-0.343678742647171,52.8031291518926
160370,-0.344300240278244,52.619302122384
160470,-0.343264430761337,52.9409944655536
160580,-0.34243580698967,52.9869495701072
160690,-0.34243580698967,53.2167250928755
160800,-0.343678742647171,53.0329046746609
160910,-0.344300240278244,52.9409944655536
161020,-0.34388592839241,52.8490776451523
161130,-0.344093084335327,52.8031225405986
161240,-0.343264430761337,52.5733404065364
161350,-0.34243580698967,52.6652506156437
161460,-0.343678742647171,52.5733404065364
161570,-0.344300240278244,52.1597378542596
161680,-0.343471586704254,52.0678276451523
161780,-0.343264430761337,51.8840072269377
161890,-0.343678742647171,51.9299689427853
162000,-0.342642962932587,51.8840138382317
162110,-0.34243580698967,52.1597444655536
162220,-0.34305727481842,52.2516546746609
162330,-0.343264430761337,52.3895265996158
162440,-0.342850118875504,52.4354817041694
162550,-0.34243580698967,52.5733470178304
162660,-0.344507396221161,51.9299623314913
162770,-0.344093084335327,51.6082699883218
162880,-0.344507396221161,50.9648853019828
162990,-0.343678742647171,51.0108470178304
163100,-0.34243580698967,51.194667436045
163200,-0.343678742647171,51.1487123314913
163310,-0.344300240278244,50.7351097792145
163420,-0.342850118875504,50.6431995701072
163530,-0.34388592839241,50.7810648837682
163640,-0.342642962932587,50.9648853019828
163750,-0.342850118875504,51.0108404065364
163860,-0.34305727481842,51.1027506156437
163970,-0.343264430761337,51.05679551109
164080,-0.343264430761337,51.0108404065364
164190,-0.34243580698967,51.194660824751
164300,-0.34305727481842,50.9648786906888
164410,-0.342850118875504,51.0567888997961
164510,-0.342850118875504,51.1027440043497
164620,-0.344093084335327,50.8270067657338
164730,-0.343264430761337,50.9648786906888
164840,-0.342228621244431,51.3784878542596
164950,-0.342850118875504,51.3325327497059
165060,-0.342642962932587,51.4703980633669
165170,-0.344300240278244,51.2406159293046
165280,-0.343678742647171,51.1027506156437
165390,-0.343264430761337,50.8729684815815
165500,-0.34388592839241,51.0108337952424
165610,-0.342642962932587,51.3325261384119
165720,-0.343264430761337,51.3784812429656
165830,-0.342850118875504,51.2865710338583
165930,-0.34305727481842,51.3784812429656
166040,-0.34305727481842,51.5623082724742
166150,-0.34305727481842,51.5623082724742
166260,-0.34305727481842,51.6542184815815
166370,-0.342642962932587,51.7461286906888
166480,-0.34305727481842,51.7461286906888
166590,-0.34243580698967,52.2975965566265
166700,-0.343678742647171,52.2975965566265
166810,-0.342850118875504,52.2516414520729
166920,-0.34305727481842,52.4814235861351
167030,-0.34305727481842,52.6652506156437
167140,-0.34388592839241,52.3435582724742
167240,-0.342850118875504,52.4814235861351
167350,-0.34305727481842,52.4354684815815
167460,-0.34305727481842,52.4354684815815
167570,-0.342642962932587,52.5733337952424
167680,-0.342850118875504,52.6652440043497
167790,-0.34305727481842,52.6652440043497
167900,-0.344300240278244,52.5273720793948
168010,-0.343264430761337,52.5273720793948
168120,-0.343264430761337,52.5273720793948
168230,-0.344093084335327,52.757147602163
168340,-0.343264430761337,52.9409746316716
168450,-0.342228621244431,52.9869363475192
168560,-0.34388592839241,52.8490644225643
168660,-0.342850118875504,53.1248016611802
168770,-0.343678742647171,53.0328914520729
168880,-0.343678742647171,52.8031159293046
168990,-0.343471586704254,52.9869429588132
169100,-0.343264430761337,53.0788531679205
169210,-0.343471586704254,52.757160824751
169320,-0.342021465301514,53.1707699883218
169430,-0.342642962932587,52.9409878542596
169540,-0.34305727481842,53.1248148837682
169650,-0.343471586704254,53.4924623314913
169760,-0.34243580698967,53.5843725405986
169870,-0.342642962932587,53.9060648837682
169970,-0.34305727481842,54.0898919132767
170080,-0.34243580698967,54.319667436045
170190,-0.34388592839241,54.18179551109
170300,-0.34388592839241,53.9060582724742
170410,-0.34243580698967,54.2277506156437
170520,-0.34243580698967,54.7792184815815
170630,-0.342850118875504,54.6413465566265
170740,-0.34160715341568,55.0549491089034
170850,-0.342850118875504,55.3766414520729
170960,-0.343471586704254,55.2387761384119
171070,-0.343264430761337,55.100910824751
171180,-0.342642962932587,55.1928210338583
171290,-0.344300240278244,54.9630388997961
171390,-0.342642962932587,55.4225965566265
171500,-0.34243580698967,55.6064169748411
171610,-0.343264430761337,55.5145067657338
171720,-0.342850118875504,55.6064169748411
171830,-0.343471586704254,55.6064169748411
171940,-0.343264430761337,55.882154213457
172050,-0.342850118875504,55.6064169748411
172160,-0.342850118875504,55.5145067657338
172270,-0.343264430761337,55.5145067657338
172380,-0.34160715341568,55.6523720793948
172490,-0.342021465301514,55.882154213457
172600,-0.343264430761337,56.0200261384119
172700,-0.344093084335327,55.7902440043497
172810,-0.343678742647171,55.6523786906888
172920,-0.343471586704254,55.5604684815815
173030,-0.343264430761337,55.4685582724742
173140,-0.343264430761337,55.5604684815815
173250,-0.341814309358597,55.6523786906888
173360,-0.343471586704254,55.8362057201973
173470,-0.343471586704254,55.5604684815815
173580,-0.343264430761337,55.5145133770278
173690,-0.344507396221161,55.0549557201973
173800,-0.343678742647171,54.9170904065364
173910,-0.343471586704254,54.6873148837682
174020,-0.343264430761337,54.7792250928755
174120,-0.343471586704254,55.0090072269377
174230,-0.343678742647171,55.0090072269377
174340,-0.342642962932587,55.3766546746609
174450,-0.344507396221161,55.100917436045
174560,-0.342850118875504,55.0090072269377
174670,-0.34243580698967,55.0090072269377
174780,-0.342850118875504,55.1928276451523
174890,-0.342228621244431,55.6523919132767
175000,-0.344507396221161,55.5145265996158
175110,-0.34305727481842,55.744308733678
175220,-0.342850118875504,55.8362189427853
175330,-0.34388592839241,55.5145265996158
175430,-0.343471586704254,55.5604817041694
175540,-0.343678742647171,55.6983536291244
175650,-0.343471586704254,55.6983536291244
175760,-0.342642962932587,55.8362189427853
175870,-0.342228621244431,56.1579112859549
175980,-0.34388592839241,55.882174047339
176090,-0.342850118875504,55.7902638382317
176200,-0.344093084335327,55.5604817041694
176310,-0.343264430761337,55.5604817041694
176420,-0.344300240278244,55.2387893609999
176530,-0.343264430761337,55.0549689427853
176640,-0.34305727481842,55.3766612859549
176750,-0.343264430761337,55.5604883154634
176850,-0.343678742647171,55.744315344972
176960,-0.342642962932587,55.9740908677403
177070,-0.34388592839241,55.6523985245707
177180,-0.343471586704254,55.6983536291244
177290,-0.342850118875504,56.0200459722939
177400,-0.34388592839241,55.7902638382317
177510,-0.343471586704254,55.882180658633
177620,-0.343471586704254,55.6983602404184
177730,-0.342642962932587,55.744315344972
177840,-0.34388592839241,55.5604883154634
177950,-0.342642962932587,55.6983536291244
178060,-0.34388592839241,55.5604817041694
178160,-0.343678742647171,55.2847510768476
178270,-0.34388592839241,55.100924047339
178380,-0.343264430761337,55.0090138382317
178490,-0.343264430761337,54.9171036291244
178600,-0.342642962932587,55.2387959722939
178710,-0.344300240278244,55.0090138382317
178820,-0.34305727481842,54.8251868087231
178930,-0.34243580698967,54.9170970178304
179040,-0.34388592839241,54.6413597792145
179150,-0.343471586704254,54.8251868087231
179260,-0.34305727481842,54.963052122384
179370,-0.343678742647171,54.8711419132767
179480,-0.344300240278244,54.7792317041694
179580,-0.344507396221161,54.3656291518926
179690,-0.34388592839241,54.2277572269377
179800,-0.343264430761337,54.1358470178304
179910,-0.34305727481842,54.1358470178304
180020,-0.343471586704254,54.0439368087231
180130,-0.34243580698967,54.181802122384
180240,-0.342850118875504,54.2277572269377
180350,-0.342642962932587,54.2277572269377
180460,-0.344093084335327,53.9979750928755
180570,-0.34305727481842,53.8601097792145
180680,-0.34388592839241,53.8141480633669
180790,-0.342228621244431,53.9520199883218
180890,-0.342850118875504,53.9979750928755
181000,-0.343264430761337,53.9520199883218
181110,-0.344714552164078,53.7681995701072
181220,-0.342642962932587,53.8141546746609
181330,-0.34243580698967,53.9520199883218
181440,-0.34243580698967,54.0898853019828
181550,-0.34388592839241,53.8141480633669
181660,-0.343471586704254,53.6762827497059
181770,-0.34388592839241,53.4924557201973
181880,-0.343471586704254,53.6762827497059
181990,-0.343471586704254,53.6303276451523
182100,-0.342850118875504,53.7222378542596
182210,-0.343678742647171,53.8141546746609
182310,-0.34388592839241,53.6762827497059
182420,-0.343264430761337,53.4465006156437
182530,-0.343264430761337,53.5843725405986
182640,-0.342228621244431,53.7222444655536
182750,-0.343264430761337,53.8141546746609
182860,-0.343471586704254,53.8601097792145
182970,-0.343678742647171,53.8141546746609
183080,-0.344093084335327,53.6303276451523
183190,-0.341192841529846,54.1358404065364
183300,-0.342642962932587,53.9979684815815
183410,-0.342021465301514,54.1358404065364
183520,-0.343471586704254,54.0439301974291
183620,-0.34388592839241,53.9520133770278
183730,-0.344300240278244,53.538410824751
183840,-0.34305727481842,53.4465006156437
183950,-0.343264430761337,53.40054551109
184060,-0.344093084335327,53.0328980633669
184170,-0.344300240278244,52.9409878542596
184280,-0.342850118875504,53.1707699883218
184390,-0.343264430761337,52.9869495701072
184500,-0.343264430761337,52.8031291518926
184610,-0.342021465301514,52.9869561814012
184720,-0.343678742647171,52.5273985245707
184830,-0.343678742647171,52.3435781063561
184940,-0.34388592839241,52.2516612859549
185040,-0.34305727481842,52.2976163905085
185150,-0.343471586704254,52.1137959722939
185260,-0.343678742647171,52.2516678972489
185370,-0.343471586704254,52.0678474790343
185480,-0.343264430761337,51.8840270608197
185590,-0.343678742647171,51.7921168517124
185700,-0.342228621244431,51.9299887766673
185810,-0.34388592839241,51.838071956266
185920,-0.344507396221161,51.5623347176501
186030,-0.343471586704254,51.4244694039892
186140,-0.342642962932587,51.4704245085428
186250,-0.343678742647171,51.3785142994356
186350,-0.342850118875504,51.1027770608197
186460,-0.344093084335327,50.6432127926952
186570,-0.34305727481842,50.6891678972489
186680,-0.342850118875504,50.9649051358647
186790,-0.34243580698967,51.2406357631866
186900,-0.34388592839241,51.1487189427853
187010,-0.342642962932587,51.2865842564463
187120,-0.343264430761337,51.2865842564463
187230,-0.342228621244431,51.194674047339
187340,-0.342642962932587,51.3784944655536
187450,-0.342850118875504,51.5163597792145
187560,-0.344093084335327,51.3325327497059
187670,-0.343678742647171,51.5163597792145
187770,-0.343264430761337,51.6082699883218
187880,-0.342642962932587,51.7920904065364
187990,-0.342642962932587,51.9299557201973
188100,-0.343264430761337,51.975910824751
188210,-0.343678742647171,51.975910824751
188320,-0.34388592839241,51.7001735861351
188430,-0.343264430761337,51.975910824751
188540,-0.343471586704254,51.83804551109
188650,-0.342850118875504,51.7461353019828
188760,-0.343678742647171,51.5623148837682
188870,-0.342642962932587,51.4703980633669
188980,-0.343471586704254,51.7001801974291
189080,-0.343471586704254,51.6082699883218
189190,-0.34305727481842,51.5623148837682
189300,-0.342228621244431,51.9299689427853
189410,-0.342021465301514,52.2516612859549
189520,-0.343471586704254,52.2976163905085
189630,-0.34388592839241,52.2056995701072
189740,-0.343471586704254,52.0218791518926
189850,-0.344093084335327,51.6082699883218
189960,-0.343471586704254,51.7001868087231
190070,-0.34243580698967,51.7920970178304
190180,-0.34243580698967,52.1597444655536
190290,-0.34243580698967,52.3435648837682
190400,-0.34388592839241,52.4354750928755
190500,-0.342850118875504,52.5273853019828
190610,-0.343471586704254,52.4354750928755
190720,-0.343264430761337,52.4354750928755
190830,-0.343678742647171,52.4354750928755
190940,-0.345128864049912,51.8840072269377
191050,-0.343678742647171,51.9299689427853
191160,-0.34305727481842,52.0218791518926
191270,-0.343471586704254,51.8840138382317
191380,-0.343264430761337,52.0218857631866
191490,-0.344300240278244,51.838058733678
191600,-0.343678742647171,51.7921036291244
191710,-0.343678742647171,51.5623281063561
191810,-0.343471586704254,51.6542449267574
191920,-0.344714552164078,51.194687269927
192030,-0.343471586704254,51.2866040903283
192140,-0.34305727481842,51.4244694039892
192250,-0.342850118875504,51.6542515380514
192360,-0.343264430761337,51.6542515380514
192470,-0.339535564184189,52.4814566426051
192580,-0.342850118875504,52.4355015380514
192690,-0.343678742647171,52.5733734630064
192800,-0.343264430761337,52.5274183584527
192910,-0.343471586704254,52.2976428356845
193020,-0.342850118875504,52.5274249697467
193130,-0.343678742647171,52.4814698651931
193230,-0.344507396221161,52.1597775220235
193340,-0.343264430761337,52.2516877311308
193450,-0.34388592839241,52.3435979402381
193560,-0.343264430761337,52.619335178854
193670,-0.343678742647171,52.6652968947017
193780,-0.342642962932587,52.8031622083626
193890,-0.342850118875504,52.8491173129162
194000,-0.344507396221161,52.619335178854
194110,-0.343678742647171,52.3436045515321
194220,-0.344507396221161,51.975957103809
194330,-0.342850118875504,51.9300019992553
194440,-0.343264430761337,52.1138290287639
194540,-0.343678742647171,51.9759637151029
194650,-0.343678742647171,52.0219254309506
194760,-0.343471586704254,51.7461881923347
194870,-0.343471586704254,51.6083228786738
194980,-0.342642962932587,51.7461881923347
195090,-0.343678742647171,51.9759703263969
195200,-0.343264430761337,51.838105012736
195310,-0.343678742647171,51.5623743854141
195420,-0.34305727481842,51.4245090717532
195530,-0.343471586704254,51.5164258921545
195640,-0.342850118875504,51.6542912058154
195750,-0.342642962932587,51.9300284444313
195860,-0.344093084335327,51.7921565194763
195960,-0.344300240278244,51.6083294899678
196070,-0.342642962932587,51.6542845945214
196180,-0.342642962932587,51.8840601172896
196290,-0.342850118875504,52.1138422513519
196400,-0.34243580698967,52.2976626695665
196510,-0.342850118875504,52.3895728786738
196620,-0.344093084335327,51.9759637151029
196730,-0.34243580698967,52.1597841333175
196840,-0.34243580698967,52.3895596560858
196950,-0.344093084335327,52.2976428356845
197060,-0.343264430761337,52.4814698651931
197170,-0.34305727481842,52.0678673129162
197270,-0.338499754667282,52.9869892378712
197380,-0.341192841529846,53.1708096560858
197490,-0.342228621244431,53.4465468947017
197600,-0.343264430761337,53.5844188196566
197710,-0.343471586704254,53.7682458491652
197820,-0.343264430761337,53.7222907446115
197930,-0.344093084335327,53.5384637151029
198040,-0.343678742647171,53.6303805355042
198150,-0.343471586704254,53.8142075650128
198260,-0.342850118875504,53.8142075650128
198370,-0.343471586704254,53.7682524604592
198480,-0.344300240278244,53.5384703263969
198590,-0.34305727481842,53.3086881923347
198690,-0.343471586704254,53.3546432968884
198800,-0.34388592839241,53.3086815810407
198910,-0.343471586704254,53.400598401442
199020,-0.342642962932587,53.4925086105493
199130,-0.344507396221161,53.2627264764871
199240,-0.34243580698967,53.538457103809
199350,-0.343471586704254,53.538457103809
199460,-0.34388592839241,53.400585178854
199570,-0.343264430761337,53.4924953879613
199680,-0.342642962932587,53.40057856756
199790,-0.343264430761337,53.538450492515
199900,-0.34388592839241,53.6763158061759
200000,-0.34388592839241,53.5843989857746
200110,-0.343264430761337,53.4465336721137
200220,-0.342850118875504,53.6303540903283
200330,-0.344093084335327,53.3546168517124
200440,-0.343471586704254,53.4924887766673
200550,-0.344300240278244,53.2167515380514
200660,-0.343471586704254,53.0788862243905
200770,-0.34305727481842,52.9410209107296
200880,-0.344507396221161,52.8031555970686
200990,-0.343264430761337,52.6652902834077
201100,-0.343678742647171,52.5733800743004
201210,-0.342642962932587,52.4814632538991
201320,-0.34305727481842,52.3895530447918
201420,-0.34305727481842,52.3435979402381
201530,-0.345128864049912,52.1138224174699
201640,-0.343678742647171,52.1138224174699
201750,-0.343678742647171,52.0219122083626
201860,-0.342642962932587,52.0219122083626
201970,-0.343264430761337,51.8840468947017
202080,-0.34243580698967,52.0678673129162
202190,-0.343678742647171,52.0678673129162
202300,-0.343678742647171,52.1138290287639
202410,-0.343678742647171,52.0219188196566
202520,-0.34388592839241,51.9300019992553
202630,-0.34305727481842,51.8840468947017
202730,-0.34305727481842,52.0219122083626
202840,-0.34243580698967,52.0678673129162
202950,-0.343471586704254,52.0678673129162
203060,-0.344300240278244,51.8840402834077
203170,-0.344093084335327,51.6542581493454
203280,-0.342642962932587,51.5623413289441
203390,-0.342642962932587,51.4244694039892
203500,-0.343264430761337,51.4704245085428
203610,-0.34243580698967,51.7921168517124
203720,-0.343471586704254,51.7921168517124
203830,-0.342642962932587,52.1138091948819
203940,-0.343264430761337,52.1597642994356
204050,-0.342850118875504,52.0678540903283
204150,-0.34388592839241,51.7461617471587
204260,-0.34388592839241,51.4244694039892
204370,-0.34305727481842,51.6082964334978
204480,-0.342850118875504,51.6082964334978
204590,-0.34388592839241,51.5163796130965
204700,-0.34388592839241,51.3785076881416
204810,-0.34305727481842,51.5163730018025
204920,-0.344507396221161,51.6542383154634
205030,-0.343471586704254,51.7001934200171
205140,-0.343471586704254,51.6082832109098
205250,-0.343678742647171,51.5623281063561
205360,-0.343678742647171,51.4704178972489
205460,-0.34305727481842,51.7461551358647
205570,-0.344300240278244,51.6082832109098
205680,-0.342642962932587,51.838058733678
205790,-0.34305727481842,51.9299689427853
205900,-0.343678742647171,52.1597510768476
206010,-0.343678742647171,52.1137959722939
206120,-0.343471586704254,52.0218857631866
206230,-0.34388592839241,51.7921036291244
206340,-0.340985685586929,52.2976163905085
206450,-0.343678742647171,51.3785010768476
206560,-0.342850118875504,51.3785010768476
206670,-0.34388592839241,51.3325393609999
206780,-0.34388592839241,51.194667436045
206880,-0.342642962932587,51.3784878542596
206990,-0.34305727481842,51.3325327497059
207100,-0.344300240278244,51.194660824751
207210,-0.343678742647171,51.3784878542596
207320,-0.34305727481842,51.4244429588132
207430,-0.343264430761337,51.5623148837682
207540,-0.342850118875504,51.6542250928755
207650,-0.344714552164078,51.4244429588132
207760,-0.342642962932587,51.4244429588132
207870,-0.343471586704254,51.2865776451523
207980,-0.343264430761337,51.5623148837682
208090,-0.344093084335327,51.4703980633669
208190,-0.342021465301514,52.0218725405986
208300,-0.344300240278244,51.7001801974291
208410,-0.34388592839241,51.5623082724742
208520,-0.34305727481842,51.7001735861351
208630,-0.342228621244431,52.0218659293046
208740,-0.34388592839241,51.9299491089034
208850,-0.344093084335327,51.7920771839484
208960,-0.342642962932587,51.7920771839484
209070,-0.34305727481842,51.9299424976094
209180,-0.34388592839241,51.7920705726544
209290,-0.345336049795151,51.4244165136372
209400,-0.342850118875504,51.4703716181909
209510,-0.34243580698967,51.7001471409591
209610,-0.343264430761337,51.6082369318518
209720,-0.342850118875504,51.5622818272982
209830,-0.343471586704254,51.7001537522531
209940,-0.344093084335327,51.7461088568068
210050,-0.342850118875504,51.7001537522531
210160,-0.344300240278244,51.33250630453
210270,-0.34388592839241,51.1027241704677
210380,-0.344300240278244,50.6891216181909
210490,-0.34305727481842,50.6431665136372
210600,-0.342021465301514,51.1027307817617
210710,-0.343264430761337,50.9189103635471
210820,-0.343471586704254,50.6891348407789
210920,-0.342642962932587,51.0108271839484
211030,-0.343678742647171,50.9189169748411
211140,-0.342850118875504,50.9648720793948
211250,-0.342850118875504,49.9997950498862
211360,-0.34388592839241,0
211470,-0.34305727481842,59.1802002787268
211580,-0.343678742647171,58.7895893274591
211690,-0.342642962932587,39.7143502589493
211800,-0.344507396221161,59.2884081281969
211910,-0.34305727481842,59.722441456202
212020,-0.344093084335327,59.5488206321931
212130,-0.343264430761337,59.6356248001918
212240,-0.343678742647171,59.2884081281969
212340,-0.344507396221161,58.8543748001918
212450,-0.343678742647171,59.1147997921995
212560,-0.343678742647171,58.8543872882033
212670,-0.34305727481842,59.0279956242008
212780,-0.34388592839241,59.0279956242008
212890,-0.343678742647171,58.941191456202
213000,-0.343264430761337,58.6807789522059
213110,-0.344093084335327,58.8543872882033
213220,-0.343678742647171,58.333562280211
213330,-0.343264430761337,58.4203664482097
213440,-0.344714552164078,62.2657744817367
213550,-0.343678742647171,62.1095267295824
213650,-0.343471586704254,61.7970312252737
213760,-0.344093084335327,61.4845244817367
213870,-0.34305727481842,61.7970312252737
213980,-0.344300240278244,61.6407834731194
214090,-0.34388592839241,61.4064006056595
214200,-0.342021465301514,47.4757148093842
214310,-0.342642962932587,47.8963872212693
214420,-0.34305727481842,48.0165768688098
214530,-0.342642962932587,48.4973441044652
214640,-0.342850118875504,48.677628575776
214750,-0.343678742647171,48.4973441044652
214860,-0.343264430761337,48.8579216925801
214970,-0.34243580698967,49.0983009876612
215070,-0.343471586704254,49.1583958114314
215180,-0.344093084335327,48.7377233995463
215290,-0.34388592839241,48.4973354589719
215400,-0.34388592839241,48.2569475183976
215510,-0.343264430761337,48.7978095778233
215620,-0.342642962932587,49.0982836966746
215730,-0.342021465301514,49.57905093233
215840,-0.34305727481842,49.4588612847895
215950,-0.344093084335327,49.2184733442151
216060,-0.34388592839241,48.79780093233
216170,-0.343471586704254,48.8578957561003
216280,-0.34305727481842,49.0381802274111
216380,-0.34388592839241,48.9780767581475
216490,-0.343471586704254,49.0982750511813
216600,-0.342850118875504,49.1583698749516
216710,-0.343471586704254,49.0381802274111
216820,-0.343678742647171,48.6776112847895
216930,-0.342642962932587,48.9179905798705
217040,-0.342850118875504,49.3386629917557
217150,-0.34388592839241,49.3987578155259
217260,-0.342850118875504,49.3386629917557
217370,-0.343471586704254,49.0982836966746
217480,-0.342021465301514,49.4588612847895
217590,-0.34388592839241,49.0381888729043
217700,-0.34305727481842,49.1583785204449
217800,-0.34388592839241,48.79780093233
217910,-0.343471586704254,48.7377061085597
218020,-0.343678742647171,48.4973268134787
218130,-0.343264430761337,48.6776199302827
218240,-0.343471586704254,48.7978182233165
218350,-0.344093084335327,48.4973354589719
218460,-0.343264430761337,48.3771458114314
218570,-0.34305727481842,48.6175337520058
218680,-0.342642962932587,48.9781113401206
218790,-0.342021465301514,49.2785941044652
218900,-0.342850118875504,49.7593613401206
219010,-0.343678742647171,49.6992665163504
219110,-0.343264430761337,49.7593613401206
219220,-0.343471586704254,49.8194561638909
219330,-0.34243580698967,50.1800251065125
219440,-0.342850118875504,50.2401199302827
219550,-0.343471586704254,50.4805078708571
219660,-0.343264430761337,50.3002233995463
219770,-0.343678742647171,50.1199389282355
219880,-0.342642962932587,50.4204130470868
219990,-0.34388592839241,50.3603095778233
220100,-0.343471586704254,50.3603095778233
220210,-0.34243580698967,50.7809819897084
220320,-0.344093084335327,49.8795423421679
220430,-0.344507396221161,49.6391544015935
220530,-0.344507396221161,49.1583871659381
220640,-0.34160715341568,49.8194475183976
220750,-0.342642962932587,50.1800251065125
220860,-0.34305727481842,50.0598354589719
220970,-0.344300240278244,49.6992578708571
221080,-0.343264430761337,49.9997406352017
221190,-0.343678742647171,49.9997406352017
221300,-0.343264430761337,49.9396458114314
221410,-0.34388592839241,49.7593526946273
221520,-0.34305727481842,49.6992578708571
221630,-0.343471586704254,50.0598354589719
221740,-0.342850118875504,49.9997406352017
221840,-0.342850118875504,50.1800251065125
221950,-0.343471586704254,50.1199302827422
222060,-0.34305727481842,50.4204130470868
222170,-0.343678742647171,49.9396458114314
222280,-0.344714552164078,49.8194561638909
222390,-0.34243580698967,50.240128575776
222500,-0.343678742647171,50.0598441044652
222610,-0.341192841529846,50.3603182233165
222720,-0.342850118875504,50.6608009876611
222830,-0.34243580698967,51.1415682233165
222940,-0.343264430761337,50.9612837520058
223050,-0.34388592839241,50.7208958114314
223160,-0.34243580698967,51.1415682233165
223260,-0.343264430761337,51.7425337520058
223370,-0.343471586704254,51.562249280695
223480,-0.342850118875504,51.4420596331544
223590,-0.343678742647171,51.3218699856139
223700,-0.342642962932587,51.3819648093842
223810,-0.342850118875504,51.562249280695
223920,-0.343471586704254,51.742542397499
224030,-0.343678742647171,51.502163102418
224140,-0.342850118875504,51.9228355143031
224250,-0.34305727481842,52.1632234548774
224360,-0.343264430761337,52.463706219222
224470,-0.342850118875504,52.5238010429923
224570,-0.34305727481842,52.2233182786477
224680,-0.343678742647171,52.1031286311072
224790,-0.344300240278244,51.8627406905328
224900,-0.34388592839241,51.502163102418
225010,-0.34388592839241,51.4420596331544
225120,-0.344093084335327,51.0814820450396
225230,-0.341814309358597,51.3819648093842
225340,-0.343264430761337,51.5622579261882
225450,-0.344714552164078,51.0814906905328
225560,-0.34388592839241,51.0213872212693
225670,-0.342850118875504,50.961292397499
225780,-0.34305727481842,51.3819648093842
225890,-0.344093084335327,51.0814820450396
225990,-0.34388592839241,51.1415768688098
226100,-0.34243580698967,51.3819561638909
226210,-0.344507396221161,51.1415682233165
226320,-0.34388592839241,51.3218526946273
226430,-0.342850118875504,51.5622319897084
226540,-0.344507396221161,51.3218440491341
226650,-0.34243580698967,51.5021285204449
226760,-0.34305727481842,51.7425164610192
226870,-0.343264430761337,51.8627061085597
226980,-0.34388592839241,51.6824129917557
227090,-0.343264430761337,51.92280093233
227200,-0.343264430761337,52.0429905798705
227300,-0.34305727481842,52.1030854036408
227410,-0.343471586704254,52.4636629917557
227520,-0.343678742647171,52.4636629917557
227630,-0.344300240278244,52.2232750511813
227740,-0.342850118875504,52.5838526392962
227850,-0.343264430761337,52.5237578155259
227960,-0.34305727481842,52.8843354036408
228070,-0.343264430761337,53.0646285204449
228180,-0.343471586704254,52.6439561085597
228290,-0.343471586704254,52.4035768134787
228400,-0.342021465301514,52.7040595778233
228510,-0.343471586704254,52.4636802827422
228620,-0.343264430761337,52.3434906352017
228720,-0.34305727481842,52.5237751065125
228830,-0.344507396221161,52.1631975183976
228940,-0.343264430761337,51.9228182233165
229050,-0.34305727481842,52.0430078708571
229160,-0.34388592839241,52.1031026946273
229270,-0.344093084335327,52.0430078708571
229380,-0.344507396221161,51.8627233995463
229490,-0.342850118875504,51.9829130470868
229600,-0.342228621244431,52.1031113401206
229710,-0.343678742647171,51.6223441044652
229820,-0.343264430761337,51.562249280695
229930,-0.343471586704254,51.742542397499
230030,-0.343678742647171,51.8026458667626
230140,-0.34305727481842,51.9228355143031
230250,-0.342850118875504,51.9829303380734
230360,-0.344300240278244,51.8627406905328
230470,-0.343264430761337,51.9228355143031
230580,-0.344093084335327,51.5622579261882
230690,-0.344300240278244,51.3218699856139
230800,-0.34305727481842,51.5021544569247
230910,-0.343471586704254,51.2617751618436
231020,-0.344093084335327,50.9011975737288
231130,-0.342850118875504,51.2016803380734
231240,-0.342021465301514,51.4420682786477
231350,-0.342228621244431,51.8026458667626
231450,-0.344093084335327,51.2016803380734
231560,-0.344093084335327,51.1415855143031
231670,-0.343471586704254,51.0213958667626
231780,-0.344093084335327,50.9613010429923
231890,-0.344093084335327,50.7810079261882
232000,-0.342642962932587,51.0814820450396
232110,-0.342850118875504,51.2016716925801
232220,-0.34305727481842,51.3218613401206
232330,-0.343471586704254,51.5021544569247
232440,-0.343264430761337,51.5021544569247
232550,-0.342850118875504,51.562249280695
232660,-0.34305727481842,51.4420596331544
232760,-0.343471586704254,51.0213872212693
232870,-0.343471586704254,50.8411027499585
232980,-0.34305727481842,51.0213872212693
233090,-0.34243580698967,51.2617665163504
233200,-0.342642962932587,51.5021458114314
233310,-0.34305727481842,51.3218613401206
233420,-0.342021465301514,51.562249280695
233530,-0.342850118875504,51.7425337520058
233640,-0.342021465301514,52.1031113401206
233750,-0.340985685586929,52.8843526946273
233860,-0.34243580698967,52.9444475183976
233970,-0.342642962932587,53.3050251065125
234080,-0.343678742647171,53.2449302827422
234180,-0.34388592839241,52.8242578708571
234290,-0.34305727481842,53.1247406352017
234400,-0.343471586704254,53.4252233995463
234510,-0.344921708106995,53.3050337520058
234620,-0.343264430761337,52.8242665163504
234730,-0.34388592839241,52.4636889282355
234840,-0.342850118875504,52.5237837520058
234950,-0.343471586704254,52.7641716925801
235060,-0.34305727481842,52.8242665163504
235170,-0.34388592839241,52.7641630470868
235280,-0.342228621244431,53.0646458114314
235390,-0.342850118875504,53.365128575776
235490,-0.343471586704254,53.2449389282355
235600,-0.34305727481842,53.365128575776
235710,-0.344093084335327,53.0045509876611
235820,-0.343264430761337,52.8843613401206
235930,-0.34243580698967,53.1848354589719
236040,-0.342850118875504,53.2449302827422
236150,-0.343264430761337,53.3651199302827
236260,-0.342642962932587,53.9660768134787
236370,-0.343264430761337,53.7256975183976
236480,-0.34388592839241,53.6655940491341
236590,-0.342850118875504,53.1848268134787
236700,-0.34388592839241,52.8843440491341
236810,-0.343471586704254,52.5838699302827
236910,-0.343678742647171,52.4636802827422
237020,-0.34388592839241,52.4636802827422
237130,-0.34388592839241,52.0430078708571
237240,-0.344714552164078,51.6223354589719
237350,-0.342850118875504,51.8026199302827
237460,-0.341814309358597,52.1031026946273
237570,-0.342021465301514,52.5838699302827
237680,-0.343678742647171,52.2833958114314
237790,-0.342850118875504,52.2833958114314
237900,-0.342642962932587,52.5237751065125
238010,-0.34388592839241,52.4636716372489
238120,-0.342642962932587,52.5237664610192
238230,-0.34305727481842,52.5237664610192
238330,-0.34388592839241,52.3434733442151
238440,-0.342642962932587,52.4035681679854
238550,-0.344300240278244,52.0429905798705
238660,-0.343264430761337,52.1631802274111
238770,-0.343678742647171,52.3434733442151
238880,-0.343471586704254,52.4636716372489
238990,-0.343678742647171,52.5237751065125
239100,-0.344507396221161,52.4035854589719
239210,-0.342850118875504,52.1031026946273
239320,-0.343264430761337,52.1031026946273
239430,-0.34243580698967,52.7641544015935
239540,-0.343471586704254,52.8843526946273
239640,-0.34305727481842,52.8242578708571
239750,-0.342850118875504,52.8843526946273
239860,-0.344300240278244,52.8242578708571
239970,-0.343471586704254,52.9444561638909
240080,-0.343264430761337,52.7040768688098
240190,-0.342642962932587,53.2449389282355
240300,-0.344507396221161,53.0646544569247
240410,-0.342850118875504,53.0646544569247
240520,-0.344300240278244,53.124749280695
240630,-0.344300240278244,52.5838872212693
240740,-0.34305727481842,52.5838872212693
240850,-0.344714552164078,52.1632148093842
240960,-0.343264430761337,52.3435079261882
241060,-0.343471586704254,52.283413102418
241170,-0.34305727481842,52.3435079261882
241280,-0.344714552164078,51.8627406905328
241390,-0.344093084335327,51.6824475737288
241500,-0.344093084335327,51.562249280695
241610,-0.344093084335327,51.6223441044652
241720,-0.343264430761337,51.5021544569247
241830,-0.34243580698967,51.7425337520058
241940,-0.342642962932587,51.8627233995463
242050,-0.342642962932587,52.0430078708571
242160,-0.34243580698967,52.3434819897084
242270,-0.342642962932587,52.5838612847895
242370,-0.344093084335327,51.9828957561003
242480,-0.343678742647171,51.92280093233
242590,-0.343678742647171,51.8026112847895
242700,-0.344093084335327,51.5021285204449
242810,-0.342850118875504,51.9828957561003
242920,-0.342228621244431,52.2833785204449
243030,-0.34305727481842,52.2833785204449
243140,-0.344093084335327,52.2232836966746
243250,-0.343471586704254,52.4035768134787
243360,-0.342850118875504,52.8843440491341
243470,-0.343264430761337,52.7641544015935
243580,-0.34305727481842,52.5237664610192
243690,-0.343471586704254,52.5838612847895
243790,-0.342228621244431,52.8843440491341
243900,-0.34305727481842,53.0045336966746
244010,-0.341814309358597,53.5453957561003
244120,-0.341814309358597,53.9059733442151
244230,-0.342642962932587,53.9660681679854
244340,-0.34388592839241,54.0862578155259
244450,-0.343678742647171,53.9660681679854
244560,-0.343471586704254,54.1463612847895
244670,-0.34388592839241,54.26655093233
244780,-0.343471586704254,54.1463612847895
244890,-0.342850118875504,54.3266457561003
245000,-0.343471586704254,54.5069388729043
245100,-0.342642962932587,54.5670336966746
245210,-0.34243580698967,54.4468354036408
245320,-0.342642962932587,54.326637110607
245430,-0.343264430761337,54.5670250511813
245540,-0.34388592839241,54.6271198749516
245650,-0.343471586704254,54.6271198749516
245760,-0.342642962932587,55.0477922868367
245870,-0.343678742647171,55.1679905798705
245980,-0.34305727481842,55.04780093233
246090,-0.34388592839241,54.7473181679854
246200,-0.343471586704254,54.6271285204449
246310,-0.34305727481842,54.7473181679854
246420,-0.34388592839241,0
246520,-0.34305727481842,77.148669304082
246630,-0.343471586704254,76.7580583528142
246740,-0.34305727481842,77.148669304082
246850,-0.342642962932587,51.9538836406359
246960,-0.34388592839241,51.4330440633467
247070,-0.344300240278244,62.6956602123757
247180,-0.343678742647171,62.2073877429912
247290,-0.344093084335327,61.7191012246219
247400,-0.34305727481842,61.2308147062526
247510,-0.343264430761337,61.0355057184988
247620,-0.342850118875504,60.6448736940064
247730,-0.343264430761337,59.5706602123757
247830,-0.344300240278244,58.6917557184988
247940,-0.34305727481842,58.496446730745
248050,-0.34243580698967,52.5177704403772
248160,-0.34388592839241,52.5177704403772
248270,-0.342642962932587,52.6913787763747
248380,-0.343471586704254,52.6913787763747
248490,-0.344093084335327,53.0385954483696
248600,-0.344507396221161,57.2659138481679
248710,-0.343678742647171,57.3440489634734
248820,-0.342642962932587,57.4221728395506
248930,-0.343678742647171,57.3440489634734
249040,-0.344714552164078,60.6536273737281
249150,-0.343678742647171,60.7246593896315
249250,-0.342850118875504,60.5115837769088
249360,-0.343471586704254,60.2985183816798
249470,-0.34243580698967,60.6536273737281
249580,-0.343471586704254,60.5115837769088
249690,-0.343678742647171,60.6536375912218
249800,-0.344507396221161,60.2274965832701
249910,-0.343264430761337,59.9434093896315
250020,-0.342228621244431,55.1428436023929
250130,-0.343471586704254,55.0777409967152
250240,-0.342850118875504,55.0126383910375
250350,-0.342021465301514,51.1415682233165
250460,-0.344093084335327,51.0814733995463
250560,-0.343264430761337,50.9612837520058
250670,-0.342228621244431,51.4420596331544
250780,-0.343471586704254,51.4420596331544
250890,-0.34243580698967,51.802628575776
251000,-0.344507396221161,51.6223441044652
251110,-0.343264430761337,51.8026372212693
251220,-0.343264430761337,52.2233096331544
251330,-0.343471586704254,52.0430251618436
251440,-0.343264430761337,51.6223527499585
251550,-0.342850118875504,51.3819648093842
251660,-0.342850118875504,51.6223441044652
251770,-0.343678742647171,51.3819648093842
251880,-0.34305727481842,51.2617751618436
251980,-0.343471586704254,51.3819734548774
252090,-0.342642962932587,51.3819734548774
252200,-0.34243580698967,51.5622579261882
252310,-0.344093084335327,51.502163102418
252420,-0.343471586704254,51.2617838073369
252530,-0.342850118875504,51.682456219222
252640,-0.343471586704254,51.6223613954518
252750,-0.343471586704254,51.682456219222
252860,-0.34388592839241,51.5622579261882
252970,-0.343471586704254,51.6223527499585
253080,-0.34388592839241,51.8026372212693
253190,-0.34388592839241,51.5021544569247
253290,-0.343471586704254,51.4420596331544
253400,-0.34305727481842,51.2617751618436
253510,-0.344300240278244,51.0213872212693
253620,-0.342850118875504,51.0814820450396
253730,-0.34388592839241,50.780999280695
253840,-0.343264430761337,51.0814820450396
253950,-0.34388592839241,50.9612837520058
254060,-0.343264430761337,50.9612837520058
254170,-0.343264430761337,50.780999280695
254280,-0.344714552164078,50.7209044569247
254390,-0.343471586704254,50.5406199856139
254500,-0.343264430761337,50.8411027499585
254610,-0.343471586704254,51.0814906905328
254710,-0.34388592839241,50.8411027499585
254820,-0.344507396221161,50.9011975737288
254930,-0.342642962932587,51.0814820450396
255040,-0.343678742647171,51.0213872212693
255150,-0.343471586704254,50.9011975737288
255260,-0.342021465301514,51.6824475737288
255370,-0.343471586704254,51.8627406905328
255480,-0.344507396221161,51.7425510429923
255590,-0.343471586704254,51.9228441597964
255700,-0.344093084335327,51.682456219222
255810,-0.343678742647171,51.3218872766004
255920,-0.343264430761337,51.1416028052897
256020,-0.342228621244431,51.2618010983235
256130,-0.342021465301514,51.3819993913573
256240,-0.34305727481842,51.2618097438167
256350,-0.34305727481842,51.5622925081613
256460,-0.343678742647171,51.5622925081613
256570,-0.343471586704254,51.6223873319316
256680,-0.34160715341568,52.3435425081613
256790,-0.343471586704254,52.1632580368505
256900,-0.344507396221161,51.5021976843911
257010,-0.342850118875504,51.5622925081613
257120,-0.345128864049912,51.26181838931
257230,-0.342642962932587,51.5021976843911
257340,-0.344093084335327,51.1416200962762
257440,-0.342021465301514,51.5021976843911
257550,-0.342228621244431,51.7425856249654
257660,-0.342228621244431,52.1031632130803
257770,-0.342642962932587,51.9829649200465
257880,-0.342850118875504,52.0430597438167
257990,-0.34305727481842,51.6824821557019
258100,-0.343264430761337,51.2618097438167
258210,-0.343678742647171,50.9613356249654
258320,-0.342642962932587,51.3219132130803
258430,-0.34388592839241,51.2618097438167
258540,-0.34305727481842,51.3819993913573
258650,-0.34388592839241,51.3819993913573
258750,-0.343471586704254,51.3819993913573
258860,-0.34305727481842,51.321904567587
258970,-0.342850118875504,51.5021890388978
259080,-0.34388592839241,51.1416114507829
259190,-0.343264430761337,50.9012321557019
259300,-0.34243580698967,50.9613269794721
259410,-0.343471586704254,50.9012321557019
259520,-0.34305727481842,51.1416200962762
259630,-0.342642962932587,51.3819993913573
259740,-0.343471586704254,51.1416200962762
259850,-0.342642962932587,51.4420942151275
259960,-0.34305727481842,51.4420942151275
260070,-0.344093084335327,51.3819993913573
260170,-0.342228621244431,51.7425769794721
260280,-0.34305727481842,51.7425769794721
260390,-0.34388592839241,51.7425769794721
260500,-0.343471586704254,51.6223873319316
260610,-0.343471586704254,51.6223873319316
260720,-0.344300240278244,51.2618097438167
260830,-0.34305727481842,51.1416200962762
260940,-0.34388592839241,51.1416200962762
261050,-0.342850118875504,51.5622925081613
261160,-0.343264430761337,51.6824821557019
261270,-0.343264430761337,51.9228700962762
261380,-0.343264430761337,51.8627752725059
261480,-0.343471586704254,51.8026804487357
261590,-0.343264430761337,51.6824908011952
261700,-0.344093084335327,51.4421028606208
261810,-0.344300240278244,51.4421028606208
261920,-0.342850118875504,51.5021976843911
262030,-0.344300240278244,50.9613356249654
262140,-0.343471586704254,51.0815339179992
262250,-0.343264430761337,50.9012494466884
262360,-0.342850118875504,51.0815339179992
262470,-0.343678742647171,51.201732211033
262580,-0.343264430761337,51.5623097991479
262690,-0.343471586704254,51.6224046229182
262800,-0.344093084335327,51.201732211033
262900,-0.34305727481842,51.3820166823438
263010,-0.34305727481842,51.8627839179992
263120,-0.343471586704254,51.9228787417695
263230,-0.342642962932587,51.9829735655398
263340,-0.342228621244431,52.3435511536546
263450,-0.343678742647171,51.982982211033
263560,-0.34305727481842,52.1031718585736
263670,-0.34305727481842,52.2834563298844
263780,-0.342642962932587,52.82431838931
263890,-0.34305727481842,52.8844132130803
264000,-0.343264430761337,52.5839304487357
264110,-0.344507396221161,52.2834476843911
264210,-0.342850118875504,52.2834476843911
264320,-0.34305727481842,51.9829649200465
264430,-0.34305727481842,52.2834476843911
264540,-0.343678742647171,52.1632580368505
264650,-0.344093084335327,51.6223873319316
264760,-0.344300240278244,51.3819993913573
264870,-0.34388592839241,50.9613269794721
264980,-0.343264430761337,51.321904567587
265090,-0.34243580698967,51.5622838626681
265200,-0.343471586704254,51.5021890388978
265310,-0.343471586704254,51.5021890388978
265420,-0.343471586704254,51.4420942151275
265530,-0.344507396221161,50.9613269794721
265630,-0.343678742647171,50.7209476843911
265740,-0.34243580698967,51.0815166270127
265850,-0.342850118875504,51.1416114507829
265960,-0.342228621244431,51.5021890388978
266070,-0.34388592839241,51.1416114507829
266180,-0.34388592839241,50.7209390388978
266290,-0.342850118875504,51.0815166270127
266400,-0.342642962932587,51.3218959220937
266510,-0.342850118875504,51.3218959220937
266620,-0.342642962932587,51.5622752171748
266730,-0.343264430761337,51.6223700409451
266840,-0.342850118875504,51.9228528052897
266940,-0.343264430761337,51.9829476290599
267050,-0.34305727481842,52.2233355696343
267160,-0.34388592839241,52.2233355696343
267270,-0.34305727481842,52.3435252171748
267380,-0.344093084335327,52.0430424528302
267490,-0.344714552164078,51.9228528052897
267600,-0.342850118875504,51.9228528052897
267710,-0.34305727481842,52.163240745864
267820,-0.342642962932587,52.3435252171748
267930,-0.34305727481842,52.5839131577491
268040,-0.343264430761337,52.5839131577491
268150,-0.343264430761337,52.5839131577491
268260,-0.343471586704254,52.944490745864
268360,-0.343264430761337,53.0045855696343
268470,-0.342642962932587,53.1848700409451
268580,-0.344093084335327,53.004576924141
268690,-0.34305727481842,53.2449648647153
268800,-0.341814309358597,54.0262148647153
268910,-0.342228621244431,54.1464131577491
269020,-0.34305727481842,54.3266976290599
269130,-0.344093084335327,54.1464045122559
269240,-0.342850118875504,53.9060165716815
269350,-0.343264430761337,53.9661113954518
269460,-0.341814309358597,54.7473613954518
269570,-0.344300240278244,54.5069734548774
269670,-0.34305727481842,54.807456219222
269780,-0.342850118875504,55.0478355143031
269890,-0.343264430761337,55.0478355143031
270000,-0.343471586704254,54.6872579261882
270110,-0.344093084335327,54.086292397499
270220,-0.342642962932587,54.2064820450396
270330,-0.344093084335327,53.905999280695
270440,-0.343264430761337,54.0261889282355
270550,-0.343264430761337,54.0862837520058
270660,-0.343678742647171,53.4853268688098
270770,-0.34305727481842,53.6055165163504
270880,-0.343264430761337,53.9660941044652
270990,-0.343471586704254,53.7858096331544
271090,-0.343471586704254,54.2665768688098
271200,-0.344300240278244,53.7858096331544
271310,-0.342021465301514,54.3867751618436
271420,-0.344714552164078,53.6055251618436
271530,-0.342642962932587,53.4853268688098
271640,-0.343678742647171,53.0646544569247
271750,-0.34388592839241,52.7040768688098
271860,-0.345128864049912,52.0430251618436
271970,-0.34305727481842,52.0430251618436
272080,-0.343678742647171,51.9228355143031
272190,-0.342850118875504,52.1632148093842
272300,-0.343264430761337,51.9829303380734
272400,-0.34388592839241,51.9829303380734
272510,-0.342228621244431,52.2233182786477
272620,-0.344300240278244,52.1031286311072
272730,-0.342850118875504,52.283413102418
272840,-0.343264430761337,52.2233182786477
272950,-0.34388592839241,0
273060,-0.342850118875504,55.7820277434112
273170,-0.344507396221161,71.7775281429265
273280,-0.344093084335327,70.9962781429265
273390,-0.342850118875504,71.2892416245572
273500,-0.34243580698967,57.2659700443095
273610,-0.342642962932587,57.2659700443095
273720,-0.343678742647171,57.1878461682324
273820,-0.343264430761337,56.9534745400009
273930,-0.342850118875504,57.031598416078
274040,-0.342642962932587,57.5784767878465
274150,-0.343471586704254,57.1097222921552
274260,-0.342642962932587,57.2659700443095
274370,-0.34305727481842,57.5784767878465
274480,-0.344300240278244,57.2659700443095
274590,-0.343471586704254,57.2659700443095
274700,-0.343678742647171,57.5003529117694
274810,-0.343678742647171,57.2659812835379
274920,-0.343678742647171,57.3441163988433
275030,-0.343471586704254,57.1097447706118
275130,-0.34388592839241,56.875361903152
275240,-0.344300240278244,56.4847312835379
275350,-0.34305727481842,56.562855159615
275460,-0.343678742647171,56.4847312835379
275570,-0.343264430761337,56.4847312835379
275680,-0.344300240278244,56.4066074074607
275790,-0.34305727481842,56.875361903152
275900,-0.342850118875504,56.875361903152
276010,-0.342228621244431,52.4144950008501
276120,-0.343678742647171,52.3434741312792
276230,-0.344300240278244,51.9883595660646
276340,-0.343678742647171,51.704276087781
276450,-0.344300240278244,51.4912032617083
276550,-0.342642962932587,51.704265870421
276660,-0.344093084335327,51.4911930443483
276770,-0.342642962932587,51.9883493487046
276880,-0.341814309358597,44.350896364743
276990,-0.343264430761337,44.2908015409727
277100,-0.34388592839241,44.1706032479389
277210,-0.343264430761337,43.9903187766281
277320,-0.342642962932587,43.8701204835943
277430,-0.343678742647171,43.8701204835943
277540,-0.34388592839241,43.62973254302
277650,-0.34305727481842,43.62973254302
277760,-0.342642962932587,43.62973254302
277860,-0.342642962932587,43.7499221905605
277970,-0.34305727481842,43.8100170143308
278080,-0.344093084335327,43.9302066618713
278190,-0.343264430761337,43.8100170143308
278300,-0.342850118875504,43.870111838101
278410,-0.344093084335327,43.5696290737564
278520,-0.342642962932587,43.8701031926078
278630,-0.342228621244431,44.4109738975267
278740,-0.342850118875504,44.8316463094118
278850,-0.344093084335327,44.7715514856416
278960,-0.343264430761337,44.7715514856416
279070,-0.342642962932587,44.7114566618713
279180,-0.342642962932587,44.9518359569524
279280,-0.343264430761337,45.0119307807226
279390,-0.342850118875504,45.1922152520334
279500,-0.343264430761337,45.5527928401483
279610,-0.344507396221161,45.3124048995739
279720,-0.343471586704254,45.0119307807226
279830,-0.34388592839241,44.711448016378
279940,-0.343678742647171,44.2907756044929
280050,-0.34305727481842,44.5311635450672
280160,-0.342642962932587,44.8917411331821
280270,-0.34305727481842,44.8316463094118
280380,-0.343678742647171,44.5311721905605
280490,-0.342642962932587,44.5912670143308
280590,-0.34243580698967,44.651361838101
280700,-0.343264430761337,44.651361838101
280810,-0.34305727481842,44.5912670143308
280920,-0.343678742647171,44.4710773667902
281030,-0.343264430761337,44.41098254302
281140,-0.343678742647171,44.4710860122835
281250,-0.343471586704254,44.350896364743
281360,-0.343264430761337,44.5912843053173
281470,-0.342850118875504,45.132146364743
281580,-0.343264430761337,45.0119567172025
281690,-0.342850118875504,45.0720515409727
281800,-0.342642962932587,45.0720515409727
281910,-0.343678742647171,44.8917670696619
282010,-0.34160715341568,42.1317056033951
282120,-0.34388592839241,41.9642903016976
282230,-0.343264430761337,42.0200927262732
282340,-0.343264430761337,42.0200927262732
282450,-0.343471586704254,41.7968830279707
282560,-0.343264430761337,42.0201007542439
282670,-0.34305727481842,42.0201007542439
282780,-0.34305727481842,41.6852781788195
282890,-0.343264430761337,41.4062580279707
283000,-0.342850118875504,41.4620604525463
283110,-0.34388592839241,41.5178628771219
283220,-0.344093084335327,41.1830403016976
283320,-0.344300240278244,40.9040201508488
283430,-0.344300240278244,40.234375
283540,-0.342850118875504,40.625
283650,-0.34243580698967,40.7924072737268
283760,-0.34388592839241,40.5133871228781
283870,-0.342021465301514,40.8482096983024
283980,-0.343471586704254,40.8482096983024
284090,-0.34388592839241,40.9040121228781
284200,-0.343678742647171,40.625
284310,-0.34305727481842,40.9040201508488
284420,-0.34388592839241,40.7366048491512
284530,-0.34243580698967,40.9598145474537
284640,-0.344093084335327,40.8482016703317
284740,-0.343264430761337,40.7923992457561
284850,-0.344507396221161,40.4575766703317
284960,-0.343264430761337,40.5133790949073
285070,-0.343264430761337,40.5691815194829
285180,-0.343678742647171,40.7365968211805
285290,-0.343678742647171,40.2901693966049
285400,-0.34388592839241,40.5133790949073
285510,-0.342228621244431,40.6249919720293
285620,-0.342850118875504,40.8482016703317
285730,-0.342642962932587,41.1830242457561
285840,-0.342642962932587,41.8526613686341
285950,-0.344507396221161,41.4620363686341
286050,-0.342850118875504,41.6852460669366
286160,-0.342850118875504,41.6852460669366
286270,-0.344921708106995,48.5838342264741
286380,-0.342850118875504,48.8279774856588
286490,-0.343264430761337,48.5838342264741
286600,-0.343678742647171,48.7303229917819
286710,-0.344093084335327,48.4373524856588
286820,-0.34243580698967,48.6326614734126
286930,-0.343471586704254,48.7303229917819
287040,-0.343678742647171,48.5350140040281
287150,-0.34388592839241,48.6814957448435
287260,-0.342642962932587,49.023293497905
287370,-0.34388592839241,48.7791502387204
287470,-0.343471586704254,48.5350140040281
287580,-0.343678742647171,48.2908777693359
287690,-0.34388592839241,48.242043497905
287800,-0.344093084335327,48.0467274856588
287910,-0.342850118875504,48.0467274856588
288020,-0.342228621244431,48.1443890040281
288130,-0.343678742647171,48.0955617570897
288240,-0.343264430761337,47.9490800162743
288350,-0.34305727481842,47.9490800162743
288460,-0.343264430761337,48.193223275459
288570,-0.342850118875504,48.3397050162743
288680,-0.34388592839241,48.2908707448435
288780,-0.342228621244431,48.632668497905
288890,-0.34243580698967,48.9256319795357
289000,-0.344921708106995,48.5838342264741
289110,-0.343264430761337,48.7303229917819
289220,-0.342850118875504,49.0721207448435
289330,-0.34388592839241,48.8768047325972
289440,-0.343264430761337,48.9744592264741
289550,-0.344300240278244,48.7303159672895
289660,-0.34388592839241,48.8279704611664
289770,-0.344300240278244,48.5349999550433
289880,-0.34305727481842,48.4861727081048
289990,-0.343471586704254,48.1932022019817
290100,-0.342642962932587,48.4373384366739
290200,-0.34243580698967,48.8767906836124
290310,-0.342850118875504,49.0720996713661
290420,-0.342850118875504,49.4138974244277
290530,-0.343471586704254,49.2185884366739
290640,-0.34243580698967,49.6092134366739
290750,-0.343264430761337,49.4627316958586
290860,-0.343678742647171,49.0232794489201
290970,-0.343678742647171,48.9256249550433
291080,-0.344300240278244,48.8279704611664
291190,-0.34243580698967,49.0232794489201
291300,-0.344093084335327,48.6814816958586
291410,-0.342850118875504,48.8767906836124
291510,-0.343471586704254,48.9744522019817
291620,-0.343264430761337,48.9256249550433
291730,-0.343471586704254,48.7303159672895
291840,-0.34305727481842,48.6326614734126
291950,-0.343264430761337,48.5838342264741
292060,-0.342228621244431,49.023293497905
292170,-0.343471586704254,48.9744662509666
292280,-0.342642962932587,49.023293497905
292390,-0.344300240278244,48.9744662509666
292500,-0.342850118875504,48.9256390040281
292610,-0.343678742647171,48.5838412509666
292720,-0.342642962932587,48.632668497905
292830,-0.34388592839241,48.6814957448435
292930,-0.342850118875504,48.7791502387204
293040,-0.342642962932587,48.7791502387204
293150,-0.343471586704254,48.5838412509666
293260,-0.343471586704254,48.5350140040281
293370,-0.343678742647171,48.3397050162743
293480,-0.34305727481842,48.3885322632128
293590,-0.344507396221161,48.3885322632128
293700,-0.343471586704254,48.3885322632128
293810,-0.34243580698967,48.7303300162743
293920,-0.342642962932587,48.9744662509666
294030,-0.343678742647171,48.8279845101512
294140,-0.34388592839241,48.5350140040281
294240,-0.344507396221161,48.1932162509666
294350,-0.344300240278244,48.0467274856588
294460,-0.343264430761337,47.9002457448435
294570,-0.343264430761337,47.7049367570897
294680,-0.343264430761337,47.7049367570897
294790,-0.343471586704254,47.6072822632128
294900,-0.342850118875504,47.8025912509666
295010,-0.342850118875504,47.9002457448435
295120,-0.34305727481842,48.0467274856588
295230,-0.34305727481842,48.1443819795357
295340,-0.34305727481842,48.1932092264741
295450,-0.343264430761337,48.0955547325972
295560,-0.342850118875504,48.1932092264741
295660,-0.34388592839241,47.9490659672895
295770,-0.342642962932587,47.9490659672895
295880,-0.34243580698967,48.2420294489201
295990,-0.343264430761337,47.8514044489201
296100,-0.343471586704254,47.9490659672895
296210,-0.344300240278244,47.7049227081048
296320,-0.344300240278244,47.4607794489201
296430,-0.343678742647171,47.4119522019817
296540,-0.342850118875504,47.5096066958586
296650,-0.344093084335327,47.2654634366739
296760,-0.343471586704254,47.167808942797
296870,-0.34243580698967,47.3631179305508
296970,-0.342850118875504,47.3631179305508
297080,-0.34243580698967,47.7049156836124
297190,-0.343678742647171,47.8025772019817
297300,-0.343471586704254,47.9978932142279
297410,-0.343678742647171,48.1443819795357
297520,-0.344300240278244,47.8025842264741
297630,-0.343678742647171,47.5096207448435
297740,-0.342850118875504,47.7537640040281
297850,-0.34243580698967,47.6561024856588
297960,-0.343264430761337,47.7049297325972
298070,-0.34388592839241,47.7049297325972
298180,-0.342850118875504,47.900238720351
298290,-0.344300240278244,47.6072682142279
298390,-0.342850118875504,47.8514114734126
298500,-0.34388592839241,47.509613720351
298610,-0.343471586704254,47.6561024856588
298720,-0.343471586704254,47.6072752387204
298830,-0.343678742647171,47.8025912509666
298940,-0.344300240278244,47.5584479917819
299050,-0.344921708106995,47.1678229917819
299160,-0.34305727481842,47.3143047325972
299270,-0.34243580698967,47.6072682142279
299380,-0.344093084335327,47.5584409672895
299490,-0.343471586704254,47.2654704611664
299600,-0.342850118875504,47.2654704611664
299700,-0.343264430761337,47.118988720351
299810,-0.343264430761337,46.9725069795357
299920,-0.343678742647171,47.1678229917819
300030,-0.34388592839241,46.9236797325972
300140,-0.343471586704254,46.7771979917819
300250,-0.343678742647171,47.070168497905
300360,-0.34243580698967,47.1678229917819
300470,-0.34243580698967,47.3631319795357
300580,-0.343264430761337,47.4607864734126
300690,-0.344921708106995,47.2654774856588
300800,-0.343471586704254,47.0213412509666
300910,-0.342642962932587,47.2166502387204
301020,-0.34305727481842,47.3631319795357
301120,-0.343678742647171,47.4119662509666
301230,-0.343471586704254,47.2166572632128
301340,-0.343264430761337,47.3631460285206
301450,-0.342642962932587,47.5584550162743
301560,-0.34388592839241,47.5096207448435
301670,-0.34243580698967,47.851418497905
301780,-0.342642962932587,48.1932162509666
301890,-0.34388592839241,47.9490729917819
302000,-0.342850118875504,47.8025842264741
302110,-0.344300240278244,47.6560954611664
302220,-0.343264430761337,47.6560954611664
302330,-0.342850118875504,47.7049227081048
302430,-0.343678742647171,47.6072682142279
302540,-0.342850118875504,47.6072682142279
302650,-0.343471586704254,47.7049297325972
302760,-0.342021465301514,47.7537569795357
302870,-0.343264430761337,47.5584479917819
302980,-0.343471586704254,47.9002457448435
303090,-0.342228621244431,48.1443890040281
303200,-0.34388592839241,47.9002457448435
303310,-0.343264430761337,48.0467345101512
303420,-0.342642962932587,48.1932162509666
303530,-0.34388592839241,48.2908707448435
303640,-0.34305727481842,48.4861867570897
303750,-0.34305727481842,48.7791572632128
303850,-0.34388592839241,48.5838412509666
303960,-0.343264430761337,48.632668497905
304070,-0.343264430761337,48.4861867570897
304180,-0.343264430761337,48.2908777693359
304290,-0.34388592839241,48.0467345101512
304400,-0.343264430761337,47.9490800162743
304510,-0.343471586704254,47.9490800162743
304620,-0.343264430761337,47.7537710285206
304730,-0.343471586704254,47.7049437815821
304840,-0.343264430761337,47.802598275459
304950,-0.34305727481842,47.9490800162743
305060,-0.34305727481842,48.2420505223975
305160,-0.34388592839241,47.9002527693359
305270,-0.343471586704254,48.0467415346437
305380,-0.343678742647171,47.8514325468899
305490,-0.342642962932587,48.0467415346437
305600,-0.341192841529846,43.1423271159687
305710,-0.343264430761337,43.185729199968
305820,-0.343678742647171,43.0555229479699
305930,-0.34388592839241,42.9253104519661
306040,-0.344093084335327,42.5346792079604
306150,-0.343264430761337,42.5780812919597
306260,-0.342642962932587,42.5780812919597
306370,-0.343678742647171,42.7082937879636
306480,-0.342021465301514,42.8819083679668
306580,-0.344300240278244,42.7516958719629
306690,-0.343264430761337,42.6214896199648
306800,-0.34388592839241,42.6214896199648
306910,-0.343471586704254,42.4912833679668
307020,-0.344714552164078,42.0572562839674
307130,-0.343264430761337,42.1006583679668
307240,-0.34305727481842,42.1874625359655
307350,-0.343678742647171,42.1874625359655
307460,-0.344507396221161,41.8836417039642
307570,-0.344093084335327,41.9704458719629
307680,-0.34388592839241,41.8836354599584
307790,-0.343678742647171,41.6232229559623
307890,-0.343264430761337,41.4930167039642
308000,-0.343678742647171,41.4930167039642
308110,-0.342642962932587,41.7534354519661
308220,-0.343471586704254,41.9704521159687
308330,-0.34388592839241,42.0572562839674
308440,-0.344300240278244,41.8402396199648
308550,-0.34305727481842,41.8836417039642
308660,-0.34388592839241,41.7534292079604
308770,-0.342850118875504,41.8836354599584
308880,-0.343471586704254,41.7534292079604
308990,-0.343678742647171,41.5798208719629
309100,-0.342642962932587,41.6666250399616
309210,-0.343264430761337,41.6232229559623
309310,-0.343471586704254,41.5364187879636
309420,-0.343471586704254,41.4930167039642
309530,-0.342850118875504,41.4930167039642
309640,-0.343471586704254,41.5798271159687
309750,-0.344300240278244,41.232604199968
309860,-0.34305727481842,41.1023979479699
309970,-0.343678742647171,41.0155937799712
310080,-0.34305727481842,41.1023979479699
310190,-0.34388592839241,41.1892021159687
310300,-0.342642962932587,41.5364250319693
310410,-0.344300240278244,41.4062125359655
310520,-0.344507396221161,41.0589896199648
310620,-0.343678742647171,41.1458000319693
310730,-0.343471586704254,41.1458000319693
310840,-0.34305727481842,41.0155937799712
310950,-0.343471586704254,40.8853875279731
311060,-0.342850118875504,40.7985833599744
311170,-0.343264430761337,40.8853875279731
311280,-0.343471586704254,40.8853875279731
311390,-0.342642962932587,41.1023979479699
311500,-0.34243580698967,41.4930229479699
311610,-0.342850118875504,41.6666312839674
311720,-0.344507396221161,41.3194083679668
311830,-0.344093084335327,40.9721854519661
311940,-0.343471586704254,40.9287833679668
312040,-0.344921708106995,40.7117729479699
312150,-0.343264430761337,40.6249687799712
312260,-0.34305727481842,40.8853875279731
312370,-0.343678742647171,40.7117791919757
312480,-0.344714552164078,40.5381708559783
312590,-0.344714552164078,40.2777521079763
312700,-0.34160715341568,40.6683771079763
312810,-0.34388592839241,40.6249687799712
312920,-0.34388592839241,40.7117729479699
313030,-0.344300240278244,40.841979199968
313140,-0.34305727481842,40.841979199968
313250,-0.343264430761337,40.6683708639706
313350,-0.342642962932587,40.9721916959719
313460,-0.344093084335327,40.841979199968
313570,-0.342021465301514,41.0155937799712
313680,-0.342642962932587,41.1458000319693
313790,-0.342642962932587,41.2760062839674
313900,-0.344093084335327,41.1891958719629
314010,-0.34243580698967,41.4930167039642
314120,-0.34388592839241,41.4062062919597
314230,-0.343678742647171,41.4062062919597
314340,-0.343678742647171,41.1457937879636
314450,-0.34243580698967,41.1457937879636
314560,-0.343678742647171,41.0589896199648
314670,-0.344714552164078,41.1023917039642
314770,-0.34305727481842,41.1891958719629
314880,-0.34305727481842,41.1023917039642
314990,-0.34243580698967,41.2325979559623
315100,-0.34243580698967,41.4930104599584
315210,-0.342642962932587,41.6666187959559
315320,-0.342642962932587,41.796825047954
315430,-0.343678742647171,41.5798146279572
315540,-0.34388592839241,41.5798146279572
315650,-0.343471586704254,41.3628042079604
315760,-0.34305727481842,41.2760000399616
315870,-0.34305727481842,41.4496146199648
315980,-0.343471586704254,41.3194083679668
316090,-0.343471586704254,41.4930229479699
316190,-0.341814309358597,41.7968437799712
316300,-0.34243580698967,41.8836479479699
316410,-0.344093084335327,41.7968375359655
316520,-0.34305727481842,41.7534354519661
316630,-0.342850118875504,41.8836417039642
316740,-0.34243580698967,41.7968312919597
316850,-0.343471586704254,41.7534292079604
316960,-0.343678742647171,41.710027123961
317070,-0.342642962932587,41.6232167119565
317180,-0.344714552164078,41.4496083759591
317290,-0.344300240278244,41.2325917119565
317400,-0.344093084335327,40.9287708799552
317500,-0.343471586704254,41.0155812919597
317610,-0.343471586704254,40.928777123961
317720,-0.343471586704254,40.8419729559623
317830,-0.344093084335327,40.7985708719629
