time,raw,transformed
6880,-0.342850118875504,0
6990,-0.34305727481842,0
7100,-0.343264430761337,0
7210,-0.342228621244431,0
7320,-0.343678742647171,0
7430,-0.343471586704254,0
7540,-0.344714552164078,0
7650,-0.341814309358597,0
7750,-0.342021465301514,0
7860,-0.343678742647171,0
7970,-0.342642962932587,0
8080,-0.342642962932587,0
8190,-0.34243580698967,0
8300,-0.342642962932587,0
8410,-0.342850118875504,0
8520,-0.342642962932587,0
8630,-0.343471586704254,0
8740,-0.343264430761337,0
8850,-0.343471586704254,0
8960,-0.342228621244431,0
9060,-0.344093084335327,0
9170,-0.344093084335327,0
9280,-0.343678742647171,0
9390,-0.344507396221161,0
9500,-0.342642962932587,0
9610,-0.344507396221161,0
9720,-0.343264430761337,0
9830,-0.342228621244431,0
9940,-0.342228621244431,0
10050,-0.341814309358597,0
10160,-0.34305727481842,0
10270,-0.343264430761337,0
10380,-0.34243580698967,0
10480,-0.34305727481842,0
10590,-0.342642962932587,0
10700,-0.343264430761337,0
10810,-0.344300240278244,0
10920,-0.34305727481842,0
11030,-0.342850118875504,0
11140,-0.342642962932587,0
11250,-0.34243580698967,0
11360,-0.343678742647171,0
11470,-0.34305727481842,0
11580,-0.343264430761337,0
11690,-0.343471586704254,0
11790,-0.342850118875504,0
11900,-0.342850118875504,0
12010,-0.34305727481842,0
12120,-0.343471586704254,0
12230,-0.34388592839241,0
12340,-0.34305727481842,0
12450,-0.343264430761337,0
12560,-0.342850118875504,0
12670,-0.34305727481842,0
12780,-0.34243580698967,0
12890,-0.343471586704254,0
13000,-0.344093084335327,0
13110,-0.34305727481842,0
13210,-0.342850118875504,0
13320,-0.342850118875504,0
13430,-0.343678742647171,0
13540,-0.343471586704254,0
13650,-0.344093084335327,0
13760,-0.343264430761337,0
13870,-0.342850118875504,0
13980,-0.342850118875504,0
14090,-0.34305727481842,0
14200,-0.343471586704254,0
14310,-0.343471586704254,0
14420,-0.343471586704254,0
14520,-0.343264430761337,0
14630,-0.344093084335327,0
14740,-0.343678742647171,0
14850,-0.341814309358597,0
14960,-0.344093084335327,0
15070,-0.34388592839241,0
15180,-0.34160715341568,0
15290,-0.343264430761337,0
15400,-0.34388592839241,0
15510,-0.343471586704254,0
15620,-0.34388592839241,0
15730,-0.343471586704254,0
15840,-0.343471586704254,0
15940,-0.34243580698967,0
16050,-0.343471586704254,0
16160,-0.343264430761337,0
16270,-0.342850118875504,0
16380,-0.343471586704254,0
16490,-0.344093084335327,0
16600,-0.34305727481842,0
16710,-0.344921708106995,0
16820,-0.343264430761337,0
16930,-0.342850118875504,0
17040,-0.343678742647171,0
17150,-0.342642962932587,0
17250,-0.343471586704254,0
17360,-0.34305727481842,0
17470,-0.343264430761337,0
17580,-0.342850118875504,0
17690,-0.342850118875504,0
17800,-0.344507396221161,0
17910,-0.344714552164078,0
18020,-0.344507396221161,0
18130,-0.342642962932587,0
18240,-0.343471586704254,0
18350,-0.34243580698967,0
18460,-0.34305727481842,0
18570,-0.344300240278244,0
18670,-0.343678742647171,0
18780,-0.342642962932587,0
18890,-0.343471586704254,0
19000,-0.34243580698967,0
19110,-0.34243580698967,0
19220,-0.343678742647171,0
19330,-0.343264430761337,0
19440,-0.342642962932587,0
19550,-0.343264430761337,0
19660,-0.342850118875504,0
19770,-0.343471586704254,0
19880,-0.34305727481842,0
19980,-0.343264430761337,0
20090,-0.343471586704254,0
20200,-0.343264430761337,0
20310,-0.342021465301514,0
20420,-0.343471586704254,0
20530,-0.344300240278244,0
20640,-0.343678742647171,0
20750,-0.342228621244431,0
20860,-0.342850118875504,0
20970,-0.343678742647171,0
21080,-0.34305727481842,0
21190,-0.342021465301514,0
21300,-0.34243580698967,0
21400,-0.343471586704254,0
21510,-0.34160715341568,0
21620,-0.342642962932587,0
21730,-0.343678742647171,0
21840,-0.341814309358597,0
21950,-0.344093084335327,0
22060,-0.343678742647171,0
22170,-0.342850118875504,0
22280,-0.342850118875504,0
22390,-0.342642962932587,0
22500,-0.342850118875504,0
22610,-0.342850118875504,0
22710,-0.34305727481842,0
22820,-0.342228621244431,0
22930,-0.344093084335327,0
23040,-0.34305727481842,0
23150,-0.343471586704254,0
23260,-0.344300240278244,0
23370,-0.34388592839241,0
23480,-0.342021465301514,0
23590,-0.342021465301514,0
23700,-0.342228621244431,0
23810,-0.343678742647171,0
23920,-0.343264430761337,0
24030,-0.344093084335327,0
24130,-0.343264430761337,0
24240,-0.343264430761337,0
24350,-0.343678742647171,0
24460,-0.342850118875504,0
24570,-0.344507396221161,0
24680,-0.344093084335327,0
24790,-0.34305727481842,0
24900,-0.34388592839241,0
25010,-0.342642962932587,0
25120,-0.342228621244431,0
25230,-0.34388592839241,0
25340,-0.34305727481842,0
25440,-0.34388592839241,0
25550,-0.34305727481842,0
25660,-0.343678742647171,0
25770,-0.34388592839241,0
25880,-0.343471586704254,0
25990,-0.343471586704254,0
26100,-0.34243580698967,0
26210,-0.342850118875504,0
26320,-0.342850118875504,0
26430,-0.343678742647171,0
26540,-0.343471586704254,0
26650,-0.342850118875504,0
26760,-0.342642962932587,0
26860,-0.342642962932587,0
26970,-0.342642962932587,0
27080,-0.343471586704254,0
27190,-0.344093084335327,0
27300,-0.343678742647171,0
27410,-0.342642962932587,0
27520,-0.342642962932587,0
27630,-0.343471586704254,0
27740,-0.344093084335327,0
27850,-0.343264430761337,0
27960,-0.34388592839241,0
28070,-0.342850118875504,0
28170,-0.343264430761337,0
28280,-0.343678742647171,0
28390,-0.343471586704254,0
28500,-0.343264430761337,0
28610,-0.34305727481842,0
28720,-0.343264430761337,0
28830,-0.343264430761337,0
28940,-0.34243580698967,0
29050,-0.344093084335327,0
29160,-0.34305727481842,0
29270,-0.343678742647171,0
29380,-0.34305727481842,0
29490,-0.34305727481842,0
29590,-0.34305727481842,0
29700,-0.343471586704254,0
29810,-0.343471586704254,0
29920,-0.343471586704254,0
30030,-0.34388592839241,0
30140,-0.344507396221161,0
30250,-0.34388592839241,0
30360,-0.343678742647171,0
30470,-0.341399997472763,0
30580,-0.342021465301514,0
30690,-0.34388592839241,0
30800,-0.34243580698967,0
30900,-0.342642962932587,0
31010,-0.342642962932587,0
31120,-0.344714552164078,0
31230,-0.34305727481842,0
31340,-0.343678742647171,0
31450,-0.343678742647171,0
31560,-0.344507396221161,0
31670,-0.34243580698967,0
31780,-0.344093084335327,0
31890,-0.34305727481842,0
32000,-0.343678742647171,0
32110,-0.343678742647171,0
32220,-0.344093084335327,0
32320,-0.344093084335327,0
32430,-0.34243580698967,0
32540,-0.342021465301514,0
32650,-0.344507396221161,0
32760,-0.343678742647171,0
32870,-0.342021465301514,0
32980,-0.342850118875504,0
33090,-0.343264430761337,0
33200,-0.343678742647171,0
33310,-0.343471586704254,0
33420,-0.343264430761337,0
33530,-0.344300240278244,0
33630,-0.34243580698967,0
33740,-0.343678742647171,0
33850,-0.343264430761337,0
33960,-0.343264430761337,0
34070,-0.342850118875504,0
34180,-0.343264430761337,0
34290,-0.343264430761337,0
34400,-0.342642962932587,0
34510,-0.343678742647171,0
34620,-0.343678742647171,0
34730,-0.344921708106995,0
34840,-0.344093084335327,0
34950,-0.34305727481842,0
35050,-0.344093084335327,0
35160,-0.342642962932587,0
35270,-0.342850118875504,0
35380,-0.342850118875504,0
35490,-0.342228621244431,0
35600,-0.342850118875504,0
35710,-0.343264430761337,0
35820,-0.343264430761337,0
35930,-0.34243580698967,0
36040,-0.344093084335327,0
36150,-0.34388592839241,0
36260,-0.343264430761337,0
36360,-0.343264430761337,0
36470,-0.34305727481842,0
36580,-0.343471586704254,0
36690,-0.343264430761337,0
36800,-0.34305727481842,0
36910,-0.344093084335327,0
37020,-0.342850118875504,0
37130,-0.342850118875504,0
37240,-0.343471586704254,0
37350,-0.34305727481842,0
37460,-0.343264430761337,0
37570,-0.343471586704254,0
37680,-0.342850118875504,0
37780,-0.344093084335327,0
37890,-0.343471586704254,0
38000,-0.34388592839241,0
38110,-0.342642962932587,0
38220,-0.343678742647171,0
38330,-0.342228621244431,0
38440,-0.342021465301514,0
38550,-0.344093084335327,0
38660,-0.343678742647171,0
38770,-0.342021465301514,0
38880,-0.342228621244431,0
38990,-0.342228621244431,0
39090,-0.343264430761337,0
39200,-0.343678742647171,0
39310,-0.342850118875504,0
39420,-0.344093084335327,0
39530,-0.343678742647171,0
39640,-0.343264430761337,0
39750,-0.344507396221161,0
39860,-0.342850118875504,0
39970,-0.342228621244431,0
40080,-0.34243580698967,0
40190,-0.34388592839241,0
40300,-0.34305727481842,0
40410,-0.342021465301514,0
40510,-0.34388592839241,0
40620,-0.341399997472763,0
40730,-0.342021465301514,0
40840,-0.341814309358597,0
40950,-0.34305727481842,0
41060,-0.344093084335327,0
41170,-0.343264430761337,0
41280,-0.343678742647171,0
41390,-0.343471586704254,0
41500,-0.342642962932587,0
41610,-0.343471586704254,0
41720,-0.343678742647171,0
41820,-0.342642962932587,0
41930,-0.342850118875504,0
42040,-0.342642962932587,0
42150,-0.342850118875504,0
42260,-0.344300240278244,0
42370,-0.343471586704254,0
42480,-0.342021465301514,0
42590,-0.34388592839241,0
42700,-0.343264430761337,0
42810,-0.343678742647171,0
42920,-0.343471586704254,0
43030,-0.343678742647171,0
43140,-0.342642962932587,0
43240,-0.34243580698967,0
43350,-0.34305727481842,0
43460,-0.343471586704254,0
43570,-0.344300240278244,0
43680,-0.344300240278244,0
43790,-0.343264430761337,0
43900,-0.34388592839241,0
44010,-0.34243580698967,0
44120,-0.342850118875504,0
44230,-0.344093084335327,0
44340,-0.34388592839241,0
44450,-0.34388592839241,0
44550,-0.343471586704254,0
44660,-0.342642962932587,0
44770,-0.343471586704254,0
44880,-0.34243580698967,0
44990,-0.343471586704254,0
45100,-0.34305727481842,0
45210,-0.343264430761337,0
45320,-0.343471586704254,0
45430,-0.344093084335327,0
45540,-0.343471586704254,0
45650,-0.34305727481842,0
45760,-0.34388592839241,0
45870,-0.342850118875504,0
45970,-0.34388592839241,0
46080,-0.343471586704254,0
46190,-0.34388592839241,0
46300,-0.342850118875504,0
46410,-0.342228621244431,0
46520,-0.34388592839241,0
46630,-0.343678742647171,0
46740,-0.343471586704254,0
46850,-0.342850118875504,0
46960,-0.342642962932587,0
47070,-0.343264430761337,0
47180,-0.34305727481842,0
47280,-0.343264430761337,0
47390,-0.34388592839241,0
47500,-0.343264430761337,0
47610,-0.342850118875504,0
47720,-0.344300240278244,0
47830,-0.343264430761337,0
47940,-0.342850118875504,0
48050,-0.344093084335327,0
48160,-0.343471586704254,0
48270,-0.344507396221161,0
48380,-0.34388592839241,0
48490,-0.344714552164078,0
48600,-0.342228621244431,0
48700,-0.342642962932587,0
48810,-0.343264430761337,0
48920,-0.342850118875504,0
49030,-0.343264430761337,0
49140,-0.34388592839241,0
49250,-0.343264430761337,0
49360,-0.34388592839241,0
49470,-0.341399997472763,0
49580,-0.343678742647171,0
49690,-0.34305727481842,0
49800,-0.34305727481842,0
49910,-0.344714552164078,0
50010,-0.34243580698967,0
50120,-0.34305727481842,0
50230,-0.343471586704254,0
50340,-0.344093084335327,0
50450,-0.343264430761337,0
50560,-0.34243580698967,0
50670,-0.34305727481842,0
50780,-0.34388592839241,0
50890,-0.343471586704254,0
51000,-0.34305727481842,0
51110,-0.344093084335327,0
51220,-0.343471586704254,0
51330,-0.342642962932587,0
51430,-0.343264430761337,0
51540,-0.343678742647171,0
51650,-0.343678742647171,0
51760,-0.343678742647171,0
51870,-0.34388592839241,0
51980,-0.34305727481842,0
52090,-0.342850118875504,0
52200,-0.343471586704254,0
52310,-0.343471586704254,0
52420,-0.342021465301514,0
52530,-0.344093084335327,0
52640,-0.343264430761337,0
52740,-0.34388592839241,0
52850,-0.342642962932587,0
52960,-0.343678742647171,0
53070,-0.343471586704254,0
53180,-0.343678742647171,0
53290,-0.342642962932587,0
53400,-0.343678742647171,0
53510,-0.34388592839241,0
53620,-0.343678742647171,0
53730,-0.34305727481842,0
53840,-0.342642962932587,0
53950,-0.34243580698967,0
54060,-0.342642962932587,0
54160,-0.344507396221161,0
54270,-0.343264430761337,0
54380,-0.343471586704254,0
54490,-0.34388592839241,0
54600,-0.342642962932587,0
54710,-0.343678742647171,0
54820,-0.343678742647171,0
54930,-0.343264430761337,0
55040,-0.343264430761337,0
55150,-0.344093084335327,0
55260,-0.34388592839241,0
55370,-0.343678742647171,0
55470,-0.34305727481842,0
55580,-0.344300240278244,0
55690,-0.343471586704254,0
55800,-0.343471586704254,0
55910,-0.342642962932587,0
56020,-0.343264430761337,0
56130,-0.343471586704254,0
56240,-0.344093084335327,0
56350,-0.344093084335327,0
56460,-0.344093084335327,0
56570,-0.34305727481842,0
56680,-0.343264430761337,0
56790,-0.342642962932587,0
56890,-0.34305727481842,0
57000,-0.34305727481842,0
57110,-0.344507396221161,0
57220,-0.344300240278244,0
57330,-0.342642962932587,0
57440,-0.342642962932587,0
57550,-0.34305727481842,0
57660,-0.343678742647171,0
57770,-0.342850118875504,0
57880,-0.34305727481842,0
57990,-0.344093084335327,0
58100,-0.344507396221161,0
58200,-0.342850118875504,0
58310,-0.342850118875504,0
58420,-0.343678742647171,0
58530,-0.343678742647171,0
58640,-0.342850118875504,0
58750,-0.344300240278244,0
58860,-0.34243580698967,0
58970,-0.342642962932587,0
59080,-0.344300240278244,0
59190,-0.34305727481842,0
59300,-0.342642962932587,0
59410,-0.343471586704254,0
59520,-0.343678742647171,0
59620,-0.343678742647171,0
59730,-0.343264430761337,0
59840,-0.34388592839241,0
59950,-0.343471586704254,0
60060,-0.342642962932587,0
60170,-0.342642962932587,0
60280,-0.342850118875504,0
60390,-0.344300240278244,0
60500,-0.343264430761337,0
60610,-0.342228621244431,0
60720,-0.342642962932587,0
60830,-0.34388592839241,0
60930,-0.342228621244431,0
61040,-0.343471586704254,0
61150,-0.34305727481842,0
61260,-0.343264430761337,0
61370,-0.342642962932587,0
61480,-0.34388592839241,0
61590,-0.343264430761337,0
61700,-0.343471586704254,0
61810,-0.34305727481842,0
61920,-0.344093084335327,0
62030,-0.341814309358597,0
62140,-0.342850118875504,0
62250,-0.34243580698967,0
62350,-0.343264430761337,0
62460,-0.34388592839241,0
62570,-0.34388592839241,0
62680,-0.342850118875504,0
62790,-0.342850118875504,0
62900,-0.34305727481842,0
63010,-0.343678742647171,0
63120,-0.343264430761337,0
63230,-0.343678742647171,0
63340,-0.343471586704254,0
63450,-0.343678742647171,0
63560,-0.343471586704254,0
63660,-0.34388592839241,0
63770,-0.344093084335327,0
63880,-0.343471586704254,0
63990,-0.344093084335327,0
64100,-0.343471586704254,0
64210,-0.344507396221161,0
64320,-0.342642962932587,0
64430,-0.344093084335327,0
64540,-0.342642962932587,0
64650,-0.343678742647171,0
64760,-0.344093084335327,0
64870,-0.34388592839241,0
64980,-0.342850118875504,0
65080,-0.343264430761337,0
65190,-0.34243580698967,0
65300,-0.342228621244431,0
65410,-0.344300240278244,0
65520,-0.34243580698967,0
65630,-0.344507396221161,0
65740,-0.342642962932587,0
65850,-0.342228621244431,0
65960,-0.343678742647171,0
66070,-0.342642962932587,0
66180,-0.344714552164078,0
66290,-0.342642962932587,0
66390,-0.343678742647171,0
66500,-0.341192841529846,0
66610,-0.344093084335327,0
66720,-0.343471586704254,0
66830,-0.343264430761337,0
66940,-0.34305727481842,0
67050,-0.343471586704254,0
67160,-0.341399997472763,0
67270,-0.342642962932587,0
67380,-0.343264430761337,0
67490,-0.344093084335327,0
67600,-0.343678742647171,0
67710,-0.34243580698967,0
67810,-0.34243580698967,0
67920,-0.343264430761337,0
68030,-0.342642962932587,0
68140,-0.343678742647171,0
68250,-0.344507396221161,0
68360,-0.34388592839241,0
68470,-0.344093084335327,0
68580,-0.343678742647171,0
68690,-0.344300240278244,0
68800,-0.343471586704254,0
68910,-0.343678742647171,0
69020,-0.34388592839241,0
69130,-0.344300240278244,0
69230,-0.344300240278244,0
69340,-0.343471586704254,0
69450,-0.34388592839241,0
69560,-0.343264430761337,0
69670,-0.343264430761337,0
69780,-0.342642962932587,0
69890,-0.34160715341568,0
70000,-0.344714552164078,0
70110,-0.344093084335327,0
70220,-0.34305727481842,0
70330,-0.343678742647171,0
70440,-0.342228621244431,0
70540,-0.34305727481842,0
70650,-0.343678742647171,0
70760,-0.343471586704254,0
70870,-0.34388592839241,0
70980,-0.34388592839241,0
71090,-0.343264430761337,0
71200,-0.343471586704254,0
71310,-0.342850118875504,0
71420,-0.34388592839241,0
71530,-0.342850118875504,0
71640,-0.343678742647171,0
71750,-0.34388592839241,0
71860,-0.34305727481842,0
71960,-0.344507396221161,0
72070,-0.344714552164078,0
72180,-0.343264430761337,0
72290,-0.342850118875504,0
72400,-0.34243580698967,0
72510,-0.344300240278244,0
72620,-0.344300240278244,0
72730,-0.341814309358597,0
72840,-0.34388592839241,0
72950,-0.342642962932587,0
73060,-0.34305727481842,0
73170,-0.342850118875504,0
73270,-0.342850118875504,0
73380,-0.34305727481842,0
73490,-0.344714552164078,0
73600,-0.344093084335327,0
73710,-0.343678742647171,0
73820,-0.343264430761337,0
73930,-0.343264430761337,0
74040,-0.344300240278244,0
74150,-0.342642962932587,0
74260,-0.343471586704254,0
74370,-0.34243580698967,0
74480,-0.344921708106995,0
74590,-0.343264430761337,0
74690,-0.343678742647171,0
74800,-0.343678742647171,0
74910,-0.343678742647171,0
75020,-0.343471586704254,0
75130,-0.343678742647171,0
75240,-0.342642962932587,0
75350,-0.344093084335327,0
75460,-0.34388592839241,0
75570,-0.344093084335327,0
75680,-0.34305727481842,0
75790,-0.343471586704254,0
75900,-0.342642962932587,0
76000,-0.343678742647171,0
76110,-0.344921708106995,0
76220,-0.343264430761337,0
76330,-0.342642962932587,0
76440,-0.343471586704254,0
76550,-0.342850118875504,0
76660,-0.343678742647171,0
76770,-0.343678742647171,0
76880,-0.343264430761337,0
76990,-0.343471586704254,0
77100,-0.344300240278244,0
77210,-0.343264430761337,0
77320,-0.343678742647171,0
77420,-0.34388592839241,0
77530,-0.34305727481842,0
77640,-0.34305727481842,0
77750,-0.344300240278244,0
77860,-0.342228621244431,0
77970,-0.343264430761337,0
78080,-0.343471586704254,0
78190,-0.342850118875504,0
78300,-0.343678742647171,0
78410,-0.344507396221161,0
78520,-0.344093084335327,0
78630,-0.34305727481842,0
78730,-0.342021465301514,0
78840,-0.342850118875504,0
78950,-0.343678742647171,0
79060,-0.343264430761337,0
79170,-0.34243580698967,0
79280,-0.344300240278244,0
79390,-0.34388592839241,0
79500,-0.344300240278244,0
79610,-0.342228621244431,0
79720,-0.34243580698967,0
79830,-0.344507396221161,0
79940,-0.343471586704254,0
80050,-0.344300240278244,0
80150,-0.342642962932587,0
80260,-0.343678742647171,0
80370,-0.343678742647171,0
80480,-0.344300240278244,0
80590,-0.342850118875504,0
80700,-0.342850118875504,0
80810,-0.34305727481842,0
80920,-0.341814309358597,0
81030,-0.344093084335327,0
81140,-0.343471586704254,0
81250,-0.34388592839241,0
81360,-0.344093084335327,0
81460,-0.343264430761337,0
81570,-0.34388592839241,0
81680,-0.343678742647171,0
81790,-0.344507396221161,0
81900,-0.343264430761337,0
82010,-0.343678742647171,0
82120,-0.34305727481842,0
82230,-0.34243580698967,0
82340,-0.342642962932587,0
82450,-0.343678742647171,0
82560,-0.34388592839241,0
82670,-0.344300240278244,0
82780,-0.34388592839241,0
82880,-0.34305727481842,0
82990,-0.344093084335327,0
83100,-0.343471586704254,0
83210,-0.34305727481842,0
83320,-0.343471586704254,0
83430,-0.34305727481842,0
83540,-0.342850118875504,0
83650,-0.344093084335327,0
83760,-0.342021465301514,0
83870,-0.34388592839241,0
83980,-0.343471586704254,0
84090,-0.344507396221161,0
84190,-0.34388592839241,0
84300,-0.342850118875504,0
84410,-0.344093084335327,0
84520,-0.342642962932587,0
84630,-0.344300240278244,0
84740,-0.343678742647171,0
84850,-0.343678742647171,0
84960,-0.34243580698967,0
85070,-0.34305727481842,0
85180,-0.344093084335327,0
85290,-0.34305727481842,0
85400,-0.342642962932587,0
85510,-0.34243580698967,0
85610,-0.34388592839241,0
85720,-0.342850118875504,0
85830,-0.343264430761337,0
85940,-0.344300240278244,0
86050,-0.342850118875504,0
86160,-0.344093084335327,0
86270,-0.343471586704254,0
86380,-0.342850118875504,0
86490,-0.344300240278244,0
86600,-0.34305727481842,0
86710,-0.342642962932587,0
86820,-0.34388592839241,0
86920,-0.342228621244431,0
87030,-0.344093084335327,0
87140,-0.343678742647171,0
87250,-0.343471586704254,0
87360,-0.344093084335327,0
87470,-0.344093084335327,0
87580,-0.344300240278244,100
87690,-0.34305727481842,68.2292540820486
87800,-0.34388592839241,67.8386197161148
87910,-0.343264430761337,67.8386197161148
88020,-0.34243580698967,46.0073579363811
88130,-0.344093084335327,45.3997162723785
88240,-0.34388592839241,45.2260954483696
88340,-0.342642962932587,45.1392912803708
88450,-0.34388592839241,45.5733121203644
88560,-0.344093084335327,45.2260829603581
88670,-0.343471586704254,45.3128871283568
88780,-0.344093084335327,45.1392663043478
88890,-0.342850118875504,45.4864829763427
89000,-0.343678742647171,45.399678808344
89110,-0.343264430761337,45.5732871443414
89220,-0.343678742647171,45.1392663043478
89330,-0.344300240278244,45.0524621363491
89440,-0.34305727481842,45.3996912963555
89550,-0.342850118875504,45.9205287923593
89650,-0.344300240278244,45.3996912963555
89760,-0.34305727481842,45.5732996323529
89870,-0.343264430761337,45.3128871283568
89980,-0.34305727481842,45.5732996323529
90090,-0.342850118875504,46.4413538003517
90200,-0.34388592839241,46.180928808344
90310,-0.342850118875504,46.0941246403453
90420,-0.342642962932587,46.4413413123402
90530,-0.343471586704254,46.180928808344
90640,-0.342850118875504,46.5281454803389
90750,-0.344300240278244,46.2677204883312
90860,-0.344300240278244,45.8336871603261
90970,-0.343471586704254,45.8336871603261
91070,-0.343678742647171,46.0941121523338
91180,-0.342850118875504,46.2677204883312
91290,-0.343678742647171,46.2677204883312
91400,-0.343264430761337,46.5281454803389
91510,-0.344507396221161,51.3283756347916
91620,-0.344300240278244,50.8596211391003
91730,-0.34388592839241,51.0158688912546
91840,-0.343264430761337,50.6252382716405
91950,-0.342850118875504,50.7814860237948
92060,-0.34305727481842,50.9377337759491
92170,-0.34243580698967,51.0939815281035
92280,-0.343264430761337,51.2502292802578
92380,-0.344093084335327,51.4064770324121
92490,-0.342850118875504,51.8752315281035
92600,-0.343471586704254,51.7189837759491
92710,-0.34388592839241,51.015846412798
92820,-0.342850118875504,51.015846412798
92930,-0.342228621244431,46.874652609759
93040,-0.34305727481842,46.9456734793299
93150,-0.343678742647171,46.5195482619045
93260,-0.34388592839241,46.6615900010463
93370,-0.344507396221161,46.4485273923336
93480,-0.344093084335327,46.5195482619045
93590,-0.342850118875504,46.3064754358317
93700,-0.344093084335327,45.7382982619045
93800,-0.34305727481842,46.2354545662608
93910,-0.344300240278244,45.9513608706172
94020,-0.34243580698967,46.5905589141153
94130,-0.343678742647171,46.2354545662608
94240,-0.342850118875504,46.5195380445444
94350,-0.342850118875504,46.803621522828
94460,-0.34388592839241,46.9456632619698
94570,-0.341814309358597,47.3007778271844
94680,-0.344507396221161,46.7326006532571
94790,-0.344507396221161,46.2354443489008
94900,-0.343678742647171,45.5962463054026
95010,-0.344507396221161,45.4542045662608
95110,-0.342642962932587,45.7382880445444
95220,-0.344093084335327,45.6672671749735
95330,-0.344093084335327,45.6672671749735
95440,-0.344300240278244,45.312152609759
95550,-0.344300240278244,45.1701108706172
95660,-0.342642962932587,45.5252152184717
95770,-0.342850118875504,46.0933923923989
95880,-0.343264430761337,46.0933923923989
95990,-0.344300240278244,45.8803195663262
96100,-0.34388592839241,45.5962258706826
96210,-0.344300240278244,44.9570278271844
96320,-0.342850118875504,44.8860069576135
96430,-0.344093084335327,44.7439550011116
96530,-0.34305727481842,45.0280486967553
96640,-0.34305727481842,45.4541841315407
96750,-0.343264430761337,45.6672569576135
96860,-0.342228621244431,45.9513506532571
96970,-0.344714552164078,45.7382880445444
97080,-0.34243580698967,46.0933923923989
97190,-0.343678742647171,45.8803297836862
97300,-0.344093084335327,45.6672569576135
97410,-0.343264430761337,45.5962360880426
97520,-0.343678742647171,45.312152609759
97630,-0.343678742647171,45.4542045662608
97740,-0.342850118875504,45.1701108706172
97840,-0.342850118875504,45.5252254358317
97950,-0.344300240278244,45.2411317401881
98060,-0.342850118875504,45.8093089141153
98170,-0.342850118875504,46.1644234793299
98280,-0.343678742647171,45.8803400010463
98390,-0.34305727481842,46.2354545662608
98500,-0.342850118875504,46.1644336966899
98610,-0.344507396221161,46.093412827119
98720,-0.344093084335327,45.9513608706172
98830,-0.34305727481842,46.1644234793299
98940,-0.343471586704254,45.8093191314754
99050,-0.344300240278244,45.3831836966899
99160,-0.343264430761337,45.6672773923336
99260,-0.342021465301514,46.0223919575481
99370,-0.344093084335327,45.5252356531917
99480,-0.343471586704254,45.1701313053372
99590,-0.343264430761337,45.38320413141
99700,-0.342850118875504,45.38320413141
99810,-0.343471586704254,45.3121832618391
99920,-0.343471586704254,45.5962769574827
100030,-0.343678742647171,45.3121934791991
100140,-0.343678742647171,45.4542454357009
100250,-0.34305727481842,45.5962871748427
100360,-0.34305727481842,45.5252663052718
100470,-0.343471586704254,45.8093600009155
100570,-0.344093084335327,45.4542454357009
100680,-0.344300240278244,44.8860682617737
100790,-0.342850118875504,45.2411828269882
100900,-0.343471586704254,44.8150473922028
101010,-0.343678742647171,44.9570993487046
101120,-0.343264430761337,45.0991410878464
101230,-0.343678742647171,45.0281202182755
101340,-0.344093084335327,45.0281202182755
101450,-0.344300240278244,44.9570993487046
101560,-0.344300240278244,44.9570993487046
101670,-0.343471586704254,44.8150576095628
101780,-0.34305727481842,45.0991513052064
101890,-0.34305727481842,45.1701721747773
101990,-0.343264430761337,44.8860886964937
102100,-0.343264430761337,45.1701823921374
102210,-0.343471586704254,45.3122343486392
102320,-0.343264430761337,45.0991717399265
102430,-0.34388592839241,45.0991717399265
102540,-0.342642962932587,45.5963280442829
102650,-0.34243580698967,45.9514323921374
102760,-0.344093084335327,45.9514323921374
102870,-0.34305727481842,45.8804115225665
102980,-0.342850118875504,46.1644950008501
103090,-0.342642962932587,46.3775576095628
103200,-0.344093084335327,46.235505653061
103300,-0.343471586704254,46.5195993487046
103410,-0.342642962932587,46.6616410878464
103520,-0.341399997472763,47.1587973922028
103630,-0.34305727481842,47.5849328269882
103740,-0.342228621244431,47.8690265226319
103850,-0.342642962932587,48.0820891313446
103960,-0.344921708106995,47.4428910878464
104070,-0.343678742647171,47.1588076095628
104180,-0.34388592839241,47.1588076095628
104290,-0.342850118875504,47.1588076095628
104400,-0.343471586704254,46.8747241312792
104510,-0.343471586704254,46.8747241312792
104620,-0.343264430761337,46.7326823921374
104720,-0.34305727481842,47.1588178269228
104830,-0.344300240278244,47.1588178269228
104940,-0.344300240278244,46.8747241312792
105050,-0.343678742647171,46.8747241312792
105160,-0.343471586704254,46.6616615225665
105270,-0.343678742647171,46.6616615225665
105380,-0.342850118875504,46.8037032617083
105490,-0.342642962932587,47.4429013052064
105600,-0.342642962932587,48.0110784791337
105710,-0.343471586704254,48.1531304356355
105820,-0.344300240278244,47.798015870421
105930,-0.34388592839241,47.4429013052064
106030,-0.343471586704254,47.3008595660646
106140,-0.34305727481842,47.0877969573519
106250,-0.342642962932587,47.3008595660646
106360,-0.343471586704254,47.5139323921374
106470,-0.34388592839241,47.1588178269228
106580,-0.343264430761337,47.2298386964937
106690,-0.343471586704254,47.3718906529956
106800,-0.34243580698967,47.5139323921374
106910,-0.344093084335327,46.8747241312792
107020,-0.343678742647171,46.6616615225665
107130,-0.34305727481842,46.8747241312792
107240,-0.343264430761337,47.0877969573519
107350,-0.343471586704254,47.4429115225665
107450,-0.343678742647171,47.5849634790683
107560,-0.344093084335327,47.1588280442829
107670,-0.343471586704254,47.3719008703556
107780,-0.343471586704254,47.2298591312138
107890,-0.343264430761337,47.5849736964283
108000,-0.343678742647171,47.1588484790029
108110,-0.343264430761337,47.3008902181447
108220,-0.34243580698967,47.4429319572865
108330,-0.343264430761337,47.3008902181447
108440,-0.343678742647171,47.3719213050757
108550,-0.342850118875504,47.0168067398611
108660,-0.343471586704254,47.3719213050757
108760,-0.344714552164078,47.3009004355048
108870,-0.34388592839241,47.2298693485738
108980,-0.34305727481842,47.7270256529302
109090,-0.343678742647171,47.3719213050757
109200,-0.343678742647171,47.5139732615775
109310,-0.34243580698967,48.0821504355048
109420,-0.343471586704254,48.3662441311484
109530,-0.34243580698967,49.0054421746466
109640,-0.34388592839241,48.5793067398611
109750,-0.342850118875504,48.5793067398611
109860,-0.34305727481842,48.650327609432
109970,-0.343678742647171,48.8634004355048
110080,-0.34243580698967,49.3605567398611
110180,-0.34305727481842,49.7866921746466
110290,-0.343471586704254,49.5736295659339
110400,-0.344300240278244,49.5026086963629
110510,-0.343678742647171,49.2895460876502
110620,-0.344714552164078,48.721368913723
110730,-0.344714552164078,48.2242126093666
110840,-0.343264430761337,47.8690980441521
110950,-0.34243580698967,48.650337826792
111060,-0.342642962932587,48.5793169572211
111170,-0.343678742647171,48.5793169572211
111280,-0.344300240278244,48.5082960876502
111390,-0.343678742647171,48.3662543485084
111490,-0.343471586704254,48.4372752180793
111600,-0.34305727481842,48.650337826792
111710,-0.342642962932587,48.7213586963629
111820,-0.34305727481842,48.650337826792
111930,-0.342642962932587,49.2185150007193
112040,-0.342850118875504,49.2185150007193
112150,-0.343471586704254,49.0054523920066
112260,-0.343678742647171,49.0054523920066
112370,-0.34388592839241,48.7213586963629
112480,-0.343471586704254,48.5082960876502
112590,-0.345128864049912,48.2952334789375
112700,-0.34305727481842,48.6503480441521
112810,-0.343471586704254,48.5083063050103
112910,-0.342850118875504,48.721368913723
113020,-0.343264430761337,49.0764834789375
113130,-0.344093084335327,48.7923897832939
113240,-0.343678742647171,48.2242126093666
113350,-0.34388592839241,48.2952334789375
113460,-0.344093084335327,48.0821606528648
113570,-0.344507396221161,47.6560252180793
113680,-0.343264430761337,47.5139834789375
113790,-0.343471586704254,47.5139834789375
113900,-0.343264430761337,47.5850043485084
114010,-0.342850118875504,47.869087826792
114120,-0.34388592839241,47.7980567398611
114220,-0.344300240278244,47.3719213050757
114330,-0.344093084335327,47.0168067398611
114440,-0.34388592839241,46.8747547833593
114550,-0.342850118875504,47.3008902181447
114660,-0.343264430761337,47.6560047833593
114770,-0.344300240278244,47.1588484790029
114880,-0.34243580698967,47.5139528268574
114990,-0.341814309358597,48.1531508703556
115100,-0.344300240278244,47.7980363051411
115210,-0.34388592839241,47.7270052182101
115320,-0.343471586704254,47.9400780442829
115430,-0.342850118875504,48.4372343486392
115540,-0.343678742647171,48.650307174712
115640,-0.34388592839241,48.5082552182101
115750,-0.34305727481842,48.5082552182101
115860,-0.343471586704254,48.3662134790683
115970,-0.34305727481842,48.4372343486392
116080,-0.343264430761337,48.4372343486392
116190,-0.34388592839241,48.2951823921374
116300,-0.34243580698967,48.579265870421
116410,-0.343264430761337,48.7923386964937
116520,-0.34243580698967,48.8633595660646
116630,-0.343678742647171,48.4372343486392
116740,-0.344300240278244,48.3662134790683
116850,-0.344300240278244,47.9400780442829
116950,-0.34305727481842,47.869057174712
117060,-0.34243580698967,47.9400780442829
117170,-0.343471586704254,48.1531508703556
117280,-0.343264430761337,48.2241717399265
117390,-0.343264430761337,48.0111091312138
117500,-0.342642962932587,47.5849736964283
117610,-0.34305727481842,47.5849736964283
117720,-0.342642962932587,47.4429217399265
117830,-0.342850118875504,47.3719008703556
117940,-0.342642962932587,48.1531406529956
118050,-0.343471586704254,48.2241615225665
118160,-0.342850118875504,48.579276087781
118270,-0.344093084335327,48.1531406529956
118370,-0.344093084335327,47.9400678269228
118480,-0.343471586704254,47.9400678269228
118590,-0.34305727481842,48.0110886964937
118700,-0.344093084335327,47.6559741312792
118810,-0.343471586704254,47.9400678269228
118920,-0.344093084335327,48.0110886964937
119030,-0.343678742647171,48.0110886964937
119140,-0.342850118875504,48.2241513052064
119250,-0.342642962932587,48.579255653061
119360,-0.342850118875504,48.579255653061
119470,-0.342850118875504,48.5082347834901
119580,-0.34243580698967,48.579255653061
119680,-0.34388592839241,48.4372036965591
119790,-0.343264430761337,48.7923182617737
119900,-0.343678742647171,48.8633493487046
120010,-0.344093084335327,48.6502765226319
120120,-0.34305727481842,48.6502765226319
120230,-0.343471586704254,48.3661930443483
120340,-0.343264430761337,48.4372139139192
120450,-0.343471586704254,48.579265870421
120560,-0.34305727481842,48.6502867399919
120670,-0.343678742647171,48.579265870421
120780,-0.344300240278244,47.9400678269228
120890,-0.342642962932587,48.4372241312792
121000,-0.34388592839241,48.3661930443483
121100,-0.34388592839241,48.0820993487046
121210,-0.343678742647171,47.9400576095628
121320,-0.342850118875504,48.1531202182755
121430,-0.344093084335327,48.0110682617737
121540,-0.34305727481842,48.3661828269882
121650,-0.34243580698967,48.7212871748427
121760,-0.34388592839241,48.5792352183409
121870,-0.343678742647171,48.4371934791991
121980,-0.343471586704254,48.50821434877
122090,-0.34305727481842,48.5792352183409
122200,-0.34388592839241,48.0820789139845
122310,-0.343678742647171,47.9400371748427
122410,-0.343471586704254,48.0110580444136
122520,-0.34305727481842,47.9400371748427
122630,-0.343264430761337,48.0110580444136
122740,-0.34388592839241,48.2951415226973
122850,-0.343264430761337,48.50821434877
122960,-0.343678742647171,48.2951517400573
123070,-0.344093084335327,48.1530997835554
123180,-0.343471586704254,48.2241206531263
123290,-0.343264430761337,47.9400371748427
123400,-0.34305727481842,48.0820789139845
123510,-0.344300240278244,47.4428808704864
123620,-0.34243580698967,47.9400371748427
123730,-0.34305727481842,47.8690163052718
123830,-0.34388592839241,47.5849226096282
123940,-0.343678742647171,47.5849226096282
124050,-0.342850118875504,47.4428808704864
124160,-0.34305727481842,47.4428808704864
124270,-0.34388592839241,47.3008289139845
124380,-0.344093084335327,47.3718497835554
124490,-0.342850118875504,47.6559332618391
124600,-0.344300240278244,47.7979750009809
124710,-0.344921708106995,47.72695413141
124820,-0.343471586704254,47.6559332618391
124930,-0.343264430761337,47.3718497835554
125040,-0.344093084335327,46.8746934791991
125140,-0.343678742647171,46.8746934791991
125250,-0.343678742647171,47.0877663052718
125360,-0.34305727481842,47.3008289139845
125470,-0.343264430761337,47.3718497835554
125580,-0.34305727481842,47.3718497835554
125690,-0.343471586704254,47.0877663052718
125800,-0.344300240278244,46.6616308704864
125910,-0.344093084335327,46.16447456613
126020,-0.342850118875504,46.16447456613
126130,-0.34388592839241,46.0224226096282
126240,-0.34305727481842,46.2354852183409
126350,-0.34305727481842,46.5195789139845
126460,-0.34305727481842,46.6616206531263
126560,-0.34243580698967,47.5849021749081
126670,-0.343471586704254,47.4428604357663
126780,-0.34388592839241,47.3008084792645
126890,-0.343264430761337,47.1587667401227
127000,-0.342642962932587,47.3718293488354
127110,-0.343678742647171,47.5138813053372
127220,-0.34305727481842,47.7269439140499
127330,-0.343471586704254,47.8689958705518
127440,-0.34388592839241,47.9400167401227
127550,-0.34305727481842,48.437173044479
127660,-0.34388592839241,48.2241002184063
127770,-0.342642962932587,48.5081836966899
127870,-0.342642962932587,48.7212463054026
127980,-0.344300240278244,48.2240900010463
128090,-0.343264430761337,48.437162827119
128200,-0.342642962932587,49.0053400010463
128310,-0.343264430761337,49.2894336966899
128420,-0.343678742647171,49.3604647836208
128530,-0.343264430761337,49.218423044479
128640,-0.342850118875504,49.3604647836208
128750,-0.34305727481842,49.7866002184063
128860,-0.344507396221161,49.0763813053372
128970,-0.343264430761337,48.5792250009809
129080,-0.34388592839241,48.7212667401227
129190,-0.34388592839241,48.7212667401227
129290,-0.342642962932587,49.0053502184063
129400,-0.344093084335327,48.5792147836208
129510,-0.342850118875504,48.8632982619045
129620,-0.344300240278244,48.7212565227626
129730,-0.34388592839241,48.437162827119
129840,-0.342642962932587,48.7212463054026
129950,-0.343264430761337,48.6502254358317
130060,-0.343678742647171,48.5081836966899
130170,-0.34305727481842,48.7922773923336
130280,-0.344093084335327,48.2241002184063
130390,-0.343678742647171,48.0820584792645
130500,-0.34388592839241,47.5849021749081
130600,-0.342642962932587,47.9400065227626
130710,-0.343471586704254,48.2241002184063
130820,-0.343264430761337,48.5792147836208
130930,-0.343471586704254,48.437173044479
131040,-0.342850118875504,48.2951313053372
131150,-0.343264430761337,48.3661521749081
131260,-0.342228621244431,48.7212667401227
131370,-0.34388592839241,48.5081939140499
131480,-0.343264430761337,48.2951313053372
131590,-0.343471586704254,48.1530895661954
131700,-0.343471586704254,47.8690060879118
131810,-0.343264430761337,47.72696434877
131920,-0.34388592839241,47.3008289139845
132020,-0.34305727481842,47.4428706531263
132130,-0.342642962932587,47.5138915226973
132240,-0.342850118875504,47.9400269574827
132350,-0.342850118875504,48.3661623922682
132460,-0.344093084335327,48.1530895661954
132570,-0.343678742647171,47.9400269574827
132680,-0.343264430761337,48.2241206531263
132790,-0.342850118875504,48.4371832618391
132900,-0.343471586704254,48.6502560879118
133010,-0.343678742647171,48.6502560879118
133120,-0.343471586704254,48.4371934791991
133230,-0.343471586704254,48.1531100009155
133330,-0.344300240278244,47.6559536965591
133440,-0.343678742647171,47.3718702182755
133550,-0.344093084335327,46.8036930443483
133660,-0.343264430761337,47.016765870421
133770,-0.343471586704254,46.9457450008501
133880,-0.344300240278244,46.7326721747773
133990,-0.34388592839241,46.8036930443483
134100,-0.342850118875504,46.8747139139192
134210,-0.344300240278244,46.5906202182755
134320,-0.343678742647171,46.4485784791337
134430,-0.342850118875504,46.6616410878464
134540,-0.343264430761337,46.5906202182755
134650,-0.342642962932587,46.94572456613
134750,-0.342642962932587,47.5139017400573
134860,-0.343264430761337,47.3008391313446
134970,-0.344507396221161,47.0877765226319
135080,-0.343678742647171,47.1588076095628
135190,-0.343264430761337,47.3008493487046
135300,-0.34305727481842,47.2298284791337
135410,-0.34305727481842,47.5849430443483
135520,-0.343471586704254,47.4429013052064
135630,-0.343264430761337,47.1588178269228
135740,-0.342642962932587,47.5849532617083
135850,-0.343678742647171,47.5849532617083
135960,-0.342642962932587,47.8690367399919
136060,-0.344714552164078,47.3008595660646
136170,-0.343678742647171,47.3718906529956
136280,-0.34388592839241,47.3008595660646
136390,-0.342850118875504,47.5139221747773
136500,-0.34388592839241,47.2298284791337
136610,-0.34305727481842,47.3008493487046
136720,-0.342850118875504,47.6559639139192
136830,-0.344300240278244,47.3008493487046
136940,-0.343264430761337,47.4428910878464
137050,-0.344093084335327,47.4428910878464
137160,-0.34305727481842,47.5849328269882
137270,-0.343264430761337,47.5849328269882
137380,-0.342642962932587,47.72697456613
137480,-0.343678742647171,47.9400473922028
137590,-0.343678742647171,47.5139221747773
137700,-0.343264430761337,47.4429013052064
137810,-0.343471586704254,47.5849532617083
137920,-0.34388592839241,47.5139221747773
138030,-0.342021465301514,47.798015870421
138140,-0.344093084335327,47.4429013052064
138250,-0.343471586704254,47.5849532617083
138360,-0.343264430761337,47.8690469573519
138470,-0.342850118875504,47.8690469573519
138580,-0.342642962932587,48.4372241312792
138690,-0.344300240278244,48.6502867399919
138790,-0.343264430761337,48.7213076095628
138900,-0.343678742647171,48.579265870421
139010,-0.343471586704254,48.7923386964937
139120,-0.344507396221161,48.5082450008501
139230,-0.343264430761337,48.6502867399919
139340,-0.342021465301514,49.0054013052064
139450,-0.343471586704254,48.9343804356355
139560,-0.344093084335327,48.579265870421
139670,-0.343678742647171,48.5082450008501
139780,-0.344714552164078,48.3662032617083
139890,-0.342642962932587,48.8633595660646
140000,-0.343264430761337,48.7213178269228
140110,-0.343471586704254,48.8633697834247
140210,-0.344300240278244,48.4372343486392
140320,-0.34388592839241,48.1531406529956
140430,-0.344507396221161,47.6559843486392
140540,-0.34305727481842,47.4429217399265
140650,-0.344300240278244,47.1588280442829
140760,-0.342850118875504,47.5139426094974
140870,-0.344093084335327,47.2298489138538
140980,-0.34388592839241,46.8037134790683
141090,-0.34305727481842,47.016776087781
141200,-0.344714552164078,46.4485989138538
141310,-0.343678742647171,46.3775780442829
141420,-0.344093084335327,46.306557174712
141520,-0.344093084335327,45.9514426094974
141630,-0.343678742647171,46.0224736964283
141740,-0.344507396221161,45.3832756529302
141850,-0.344714552164078,44.6730567398611
141960,-0.344714552164078,44.5310150007193
142070,-0.344093084335327,44.2469213050757
142180,-0.34388592839241,43.8207858702902
142290,-0.344093084335327,43.5366921746466
142400,-0.342642962932587,43.8917965225011
142510,-0.342642962932587,44.1048591312138
142620,-0.343678742647171,43.8207756529302
142730,-0.342850118875504,43.8917965225011
142840,-0.344093084335327,44.0338382616429
142940,-0.344300240278244,43.6787236964283
143050,-0.342850118875504,44.0338382616429
143160,-0.34388592839241,44.0338382616429
143270,-0.343678742647171,43.6787339137884
143380,-0.344714552164078,43.4656713050757
143490,-0.344093084335327,43.0395358702902
143600,-0.343471586704254,43.3236295659339
143710,-0.342642962932587,43.7497650007193
143820,-0.34305727481842,43.6077232615775
143930,-0.343678742647171,43.4656815224357
144040,-0.34305727481842,43.6787441311484
144150,-0.344093084335327,43.3236295659339
144250,-0.34243580698967,43.8918067398611
144360,-0.343471586704254,43.962827609432
144470,-0.34305727481842,44.2469213050757
144580,-0.343264430761337,44.0338586963629
144690,-0.342850118875504,44.2469213050757
144800,-0.343264430761337,44.2469213050757
144910,-0.34388592839241,44.1048693485738
145020,-0.344300240278244,43.6077130442175
145130,-0.34388592839241,43.3946402181447
145240,-0.344507396221161,42.6133902181447
145350,-0.342642962932587,43.0395256529302
145460,-0.34305727481842,43.1105465225011
145570,-0.34305727481842,43.2525882616429
145670,-0.342642962932587,43.5366717399265
145780,-0.344093084335327,43.2525780442829
145890,-0.343264430761337,43.4656508703556
146000,-0.344507396221161,42.9684945659992
146110,-0.342642962932587,42.9684945659992
146220,-0.343678742647171,42.6844110877156
146330,-0.343678742647171,42.400327609432
146440,-0.344093084335327,42.400327609432
146550,-0.343471586704254,42.4713484790029
146660,-0.343678742647171,42.3293067398611
146770,-0.343471586704254,42.1162441311484
146880,-0.34388592839241,41.9741921746466
146990,-0.343471586704254,42.0452130442175
147090,-0.344714552164078,41.619077609432
147200,-0.344714552164078,41.1929421746466
147310,-0.342642962932587,41.7611193485738
147420,-0.342642962932587,42.1162236964283
147530,-0.342642962932587,42.6133800007847
147640,-0.34388592839241,42.400307174712
147750,-0.34243580698967,42.7554115225665
147860,-0.344093084335327,42.8264323921374
147970,-0.342850118875504,43.1815469573519
148080,-0.344093084335327,42.7554115225665
148190,-0.344300240278244,42.7554115225665
148300,-0.34388592839241,42.6843804356355
148400,-0.343471586704254,42.4713178269228
148510,-0.34305727481842,42.5423386964937
148620,-0.34388592839241,42.1162032617083
148730,-0.343678742647171,41.7610989138538
148840,-0.34388592839241,41.548026087781
148950,-0.344300240278244,41.6190469573519
149060,-0.343678742647171,41.6190469573519
149170,-0.343471586704254,41.548026087781
149280,-0.34305727481842,41.548026087781
149390,-0.343264430761337,41.4770052182101
149500,-0.342642962932587,41.7610886964937
149610,-0.34388592839241,41.548015870421
149720,-0.344714552164078,40.8377969573519
149820,-0.344093084335327,40.6957450008501
149930,-0.343471586704254,40.4116615225665
150040,-0.343471586704254,40.8377969573519
150150,-0.342850118875504,41.1218804356355
150260,-0.343678742647171,41.1929115225665
150370,-0.342642962932587,41.2639323921374
150480,-0.34305727481842,41.548026087781
150590,-0.344093084335327,41.1929115225665
150700,-0.343471586704254,40.9798489138538
150810,-0.344093084335327,41.0508697834247
150920,-0.344300240278244,40.6957552182101
151030,-0.343471586704254,40.9088280442829
151130,-0.344300240278244,40.4826926094974
151240,-0.343678742647171,40.3406508703556
151350,-0.343264430761337,40.1275882616429
151460,-0.343471586704254,40.1986091312138
151570,-0.343678742647171,40.1986091312138
151680,-0.342642962932587,40.4116717399265
151790,-0.342850118875504,40.6247343486392
151900,-0.343678742647171,40.6957654355701
152010,-0.344093084335327,39.9855363051411
152120,-0.34305727481842,40.3406508703556
152230,-0.34388592839241,40.1985989138538
152340,-0.34305727481842,40.2696197834247
152450,-0.344714552164078,39.6304217399265
152550,-0.34388592839241,39.2042863051411
152660,-0.34305727481842,39.6304217399265
152770,-0.343678742647171,39.4883800007847
152880,-0.342228621244431,39.9855363051411
152990,-0.343264430761337,40.056557174712
153100,-0.343471586704254,40.4116717399265
153210,-0.344300240278244,40.056557174712
153320,-0.342642962932587,39.8434843486392
153430,-0.343264430761337,39.9145052182101
153540,-0.34243580698967,40.4826823921374
153650,-0.343264430761337,40.6247241312792
153760,-0.34305727481842,41.1929013052064
153860,-0.343678742647171,40.8377969573519
153970,-0.343264430761337,40.8377969573519
154080,-0.343471586704254,40.8377969573519
154190,-0.343678742647171,41.0508697834247
154300,-0.34243580698967,41.548026087781
154410,-0.34305727481842,42.0451823921374
154520,-0.343264430761337,41.9741615225665
154630,-0.34305727481842,42.4002969573519
154740,-0.34388592839241,42.0451823921374
154850,-0.343264430761337,42.329276087781
154960,-0.34388592839241,42.329276087781
155070,-0.34243580698967,42.5423386964937
155180,-0.34305727481842,43.110515870421
155280,-0.342642962932587,43.4656202182755
155390,-0.342850118875504,43.891755653061
155500,-0.343264430761337,44.1758493487046
155610,-0.343678742647171,44.1758493487046
155720,-0.344714552164078,44.1048284791337
155830,-0.344300240278244,44.2468702182755
155940,-0.34305727481842,44.8150473922028
156050,-0.34388592839241,44.8860682617737
156160,-0.34243580698967,45.38322456613
156270,-0.343471586704254,45.5962973922028
156380,-0.343471586704254,45.3122139139192
156490,-0.342850118875504,45.2411930443483
156590,-0.34388592839241,45.1701619574173
156700,-0.342021465301514,45.454255653061
156810,-0.342850118875504,45.8803910878464
156920,-0.344300240278244,45.8803910878464
157030,-0.34305727481842,45.8093702182755
157140,-0.344093084335327,45.7383493487046
157250,-0.344300240278244,45.5252765226319
157360,-0.343678742647171,45.8803910878464
157470,-0.34243580698967,46.4485682617737
157580,-0.342642962932587,46.7326517400573
157690,-0.343471586704254,46.4485682617737
157800,-0.342850118875504,46.5195891313446
157910,-0.343678742647171,46.5195891313446
158010,-0.342642962932587,46.6616308704864
158120,-0.34388592839241,46.7326517400573
158230,-0.34388592839241,46.2354954357009
158340,-0.34388592839241,46.0934434791991
158450,-0.344093084335327,45.7383289139845
158560,-0.343678742647171,45.5962871748427
158670,-0.34388592839241,45.2411726096282
158780,-0.343264430761337,45.2411726096282
158890,-0.34243580698967,45.7383289139845
159000,-0.344093084335327,45.8093497835554
159110,-0.344921708106995,45.4542454357009
159220,-0.343471586704254,45.8093600009155
159320,-0.34305727481842,45.6673182617737
159430,-0.344093084335327,45.3122036965591
159540,-0.343471586704254,45.1701619574173
159650,-0.344093084335327,44.673005653061
159760,-0.34388592839241,44.7440265226319
159870,-0.344093084335327,44.4599328269882
159980,-0.343264430761337,44.8860682617737
160090,-0.34243580698967,44.9570891313446
160200,-0.344507396221161,44.6729954357009
160310,-0.344093084335327,44.5309434791991
160420,-0.342850118875504,44.9570789139845
160530,-0.34305727481842,45.0991206531263
160640,-0.343264430761337,45.2411623922682
160740,-0.34388592839241,45.0991104357663
160850,-0.342850118875504,45.4542250009809
160960,-0.343471586704254,45.4542250009809
161070,-0.344300240278244,45.5962667401227
161180,-0.343678742647171,45.9513813053372
161290,-0.34388592839241,45.5252458705518
161400,-0.342850118875504,45.4542250009809
161510,-0.343678742647171,45.0991206531263
161620,-0.343264430761337,45.3121934791991
161730,-0.344507396221161,44.60197456613
161840,-0.344093084335327,44.60197456613
161950,-0.34305727481842,44.5309536965591
162050,-0.343678742647171,44.673005653061
162160,-0.34388592839241,44.8150473922028
162270,-0.343264430761337,45.0281202182755
162380,-0.343678742647171,44.9570993487046
162490,-0.342642962932587,45.0991410878464
162600,-0.344714552164078,44.8150576095628
162710,-0.343471586704254,44.8860784791337
162820,-0.34388592839241,44.8860784791337
162930,-0.343471586704254,45.1701721747773
163040,-0.343471586704254,45.2411930443483
163150,-0.34243580698967,45.5962973922028
163260,-0.343678742647171,45.3832347834901
163370,-0.345336049795151,44.673005653061
163470,-0.343471586704254,44.3889221747773
163580,-0.344093084335327,44.3179013052064
163690,-0.344300240278244,44.4599430443483
163800,-0.34305727481842,44.8150576095628
163910,-0.34243580698967,45.1701619574173
164020,-0.342228621244431,45.5962973922028
164130,-0.34388592839241,45.2411828269882
164240,-0.342850118875504,45.5252663052718
164350,-0.34305727481842,45.38322456613
164460,-0.343471586704254,45.2411828269882
164570,-0.34388592839241,45.3122036965591
164680,-0.343678742647171,45.2411828269882
164780,-0.34305727481842,45.5962973922028
164890,-0.343678742647171,45.8093702182755
165000,-0.343678742647171,45.7383493487046
165110,-0.34388592839241,45.8803910878464
165220,-0.34243580698967,46.3065163052718
165330,-0.342642962932587,46.5195789139845
165440,-0.342850118875504,46.7326415226973
165550,-0.343264430761337,46.8746832618391
165660,-0.344093084335327,46.3775269574827
165770,-0.344507396221161,45.8093497835554
165880,-0.343471586704254,45.8803706531263
165990,-0.344093084335327,45.8803706531263
166100,-0.34388592839241,45.5962769574827
166200,-0.342642962932587,46.0224123922682
166310,-0.34305727481842,46.0224123922682
166420,-0.342642962932587,46.7326313053372
166530,-0.343264430761337,46.94570413141
166640,-0.34388592839241,46.6616104357663
166750,-0.343678742647171,46.6616104357663
166860,-0.34243580698967,46.5905793488354
166970,-0.344093084335327,46.3064856531917
167080,-0.343264430761337,46.3775065227626
167190,-0.343264430761337,46.7326210879772
167300,-0.344714552164078,46.0224021749081
167410,-0.343471586704254,45.9513813053372
167510,-0.342021465301514,46.0934332618391
167620,-0.34305727481842,46.16445413141
167730,-0.34305727481842,46.16445413141
167840,-0.342850118875504,46.4485376096936
167950,-0.344714552164078,45.9513813053372
168060,-0.344093084335327,45.7383084792645
168170,-0.34305727481842,45.9513710879772
168280,-0.34243580698967,45.9513710879772
168390,-0.344093084335327,45.5962565227626
168500,-0.34388592839241,45.3831836966899
168610,-0.343264430761337,45.312162827119
168720,-0.342850118875504,45.6672773923336
168830,-0.344093084335327,45.3831836966899
168930,-0.343678742647171,45.4542147836208
169040,-0.34388592839241,44.9570584792645
169150,-0.344714552164078,44.3888813053372
169260,-0.343471586704254,44.1047978270536
169370,-0.34243580698967,44.2468395661954
169480,-0.34305727481842,44.3178604357663
169590,-0.343471586704254,44.3888813053372
169700,-0.34305727481842,44.9570584792645
169810,-0.343678742647171,45.1701313053372
169920,-0.342228621244431,45.4542250009809
170030,-0.34243580698967,45.9513813053372
170140,-0.342642962932587,45.8803604357663
170240,-0.34305727481842,46.0224021749081
170350,-0.343471586704254,46.0224021749081
170460,-0.34388592839241,45.6672876096936
170570,-0.34388592839241,45.6672876096936
170680,-0.343471586704254,45.1701313053372
170790,-0.343264430761337,45.0280895661954
170900,-0.343471586704254,45.3121832618391
171010,-0.34243580698967,45.5252458705518
171120,-0.343264430761337,45.8093395661954
171230,-0.34305727481842,46.2354750009809
171340,-0.344093084335327,46.093423044479
171450,-0.343471586704254,45.7383186966245
171560,-0.344300240278244,45.1701415226973
171660,-0.344300240278244,44.8860478270536
171770,-0.343678742647171,44.60196434877
171880,-0.343471586704254,44.6729852183409
171990,-0.343678742647171,44.3178808704864
172100,-0.344714552164078,44.0337973922028
172210,-0.344093084335327,43.9627765226319
172320,-0.343678742647171,44.0338076095628
172430,-0.342021465301514,44.7440367399919
172540,-0.343678742647171,44.7440367399919
172650,-0.343471586704254,44.8860886964937
172760,-0.343471586704254,44.8150678269228
172870,-0.343264430761337,44.5309843486392
172970,-0.343471586704254,44.744057174712
173080,-0.343471586704254,45.2412134790683
173190,-0.343678742647171,45.1701926094974
173300,-0.343678742647171,44.9571300007847
173410,-0.34305727481842,45.3122445659992
173520,-0.343471586704254,45.3122445659992
173630,-0.342228621244431,45.9514528268574
173740,-0.344507396221161,45.7383902181447
173850,-0.34305727481842,46.0935047833593
173960,-0.343471586704254,46.0224839137884
174070,-0.342850118875504,45.8804421746466
174180,-0.344093084335327,46.0224839137884
174290,-0.343471586704254,46.2355567398611
174390,-0.34388592839241,45.8804421746466
174500,-0.343264430761337,45.8094213050757
174610,-0.34388592839241,45.5963484790029
174720,-0.342850118875504,45.9514630442175
174830,-0.342850118875504,45.9514630442175
174940,-0.342850118875504,46.1645256529302
175050,-0.344300240278244,46.1645256529302
175160,-0.34388592839241,46.0934945659992
175270,-0.343264430761337,46.306567392072
175380,-0.344093084335327,45.8804319572865
175490,-0.34305727481842,46.0934945659992
175600,-0.343264430761337,46.0934945659992
175700,-0.34305727481842,46.5906508703556
175810,-0.345336049795151,46.1645154355701
175920,-0.343264430761337,46.0934945659992
176030,-0.343678742647171,46.0934945659992
176140,-0.343264430761337,46.306567392072
176250,-0.344300240278244,45.9514528268574
176360,-0.343471586704254,46.0224736964283
176470,-0.344093084335327,45.525317392072
176580,-0.343471586704254,45.9514528268574
176690,-0.342850118875504,46.1645154355701
176800,-0.343471586704254,46.306567392072
176910,-0.343678742647171,46.2355465225011
177020,-0.344093084335327,46.0224736964283
177120,-0.34243580698967,46.0224736964283
177230,-0.343678742647171,46.0224736964283
177340,-0.343264430761337,46.7327028268574
177450,-0.344507396221161,46.3775882616429
177560,-0.343471586704254,46.5906610877156
177670,-0.343678742647171,46.8037339137884
177780,-0.343471586704254,46.6616921746466
177890,-0.344507396221161,45.9514732615775
178000,-0.343264430761337,45.5963586963629
178110,-0.344093084335327,45.525337826792
178220,-0.342642962932587,45.5963586963629
178330,-0.342228621244431,45.8804523920066
178430,-0.344714552164078,45.4543169572211
178540,-0.34388592839241,45.4543169572211
178650,-0.342228621244431,45.9514732615775
178760,-0.343471586704254,45.8094315224357
178870,-0.342850118875504,46.0935150007193
178980,-0.343471586704254,46.1645358702902
179090,-0.34243580698967,46.6616921746466
179200,-0.343264430761337,46.3776086963629
179310,-0.342850118875504,46.306587826792
179420,-0.34243580698967,46.4486295659339
179530,-0.343678742647171,46.306587826792
179640,-0.343678742647171,46.4486397832939
179750,-0.343678742647171,46.7327334789375
179850,-0.34305727481842,46.8747752180793
179960,-0.343264430761337,47.158868913723
180070,-0.342642962932587,47.5850043485084
180180,-0.343471586704254,47.3009208702248
180290,-0.344300240278244,46.8747854354394
180400,-0.34305727481842,46.7327436962976
180510,-0.344714552164078,46.2355873919412
180620,-0.343678742647171,46.3066184788721
180730,-0.34388592839241,46.2355873919412
180840,-0.343264430761337,45.9515039136576
180950,-0.344507396221161,45.8094621745158
181060,-0.343678742647171,45.667420435374
181160,-0.344300240278244,45.3123058701594
181270,-0.343264430761337,45.8094621745158
181380,-0.34305727481842,45.9515039136576
181490,-0.34388592839241,45.3122956527994
181600,-0.344093084335327,44.9571810875849
181710,-0.343471586704254,44.815139348443
181820,-0.344093084335327,44.3890039136576
181930,-0.34305727481842,44.9571810875849
182040,-0.343678742647171,45.0992330440867
182150,-0.344714552164078,44.5310558701594
182260,-0.344300240278244,43.8918578266613
182370,-0.343471586704254,44.104930652734
182480,-0.344300240278244,43.9628889135922
182580,-0.344093084335327,43.6787952179486
182690,-0.344507396221161,43.1106180440213
182800,-0.343264430761337,43.3947117396649
182910,-0.34388592839241,43.323680652734
183020,-0.342850118875504,43.6787952179486
183130,-0.343264430761337,44.1759515223049
183240,-0.343471586704254,44.1759515223049
183350,-0.343264430761337,43.8918680440213
183460,-0.34305727481842,43.8918680440213
183570,-0.344507396221161,43.5367534788067
183680,-0.344300240278244,43.1106180440213
183790,-0.344507396221161,42.8265243483776
183890,-0.343264430761337,42.4714097831631
184000,-0.344093084335327,41.9032326092358
184110,-0.344300240278244,41.3350554353086
184220,-0.343678742647171,41.1219928265959
184330,-0.343678742647171,41.050971957025
184440,-0.343471586704254,41.1930239135268
184550,-0.344300240278244,41.050982174385
184660,-0.343471586704254,41.050982174385
184770,-0.343678742647171,40.9089404352432
184880,-0.343264430761337,40.9799613048141
184990,-0.343471586704254,40.6248569569596
185100,-0.343678742647171,40.4828152178178
185210,-0.343678742647171,40.2697526091051
185310,-0.343264430761337,40.5538463047487
185420,-0.343471586704254,40.5538463047487
185530,-0.343264430761337,40.9089608699633
185640,-0.344093084335327,40.9799817395342
185750,-0.343264430761337,41.122023478676
185860,-0.344714552164078,40.6958880438905
185970,-0.342642962932587,41.050992391745
186080,-0.343264430761337,41.5481486961014
186190,-0.344300240278244,41.4771278265305
186300,-0.34388592839241,41.4060967395995
186410,-0.34305727481842,41.050982174385
186520,-0.34388592839241,40.9799510874541
186620,-0.344093084335327,40.7668782613813
186730,-0.343264430761337,40.8378991309522
186840,-0.342850118875504,40.979940870094
186950,-0.342642962932587,41.2640243483776
187060,-0.344093084335327,41.0509515223049
187170,-0.344714552164078,40.6958369570904
187280,-0.34388592839241,40.6248058701594
187390,-0.344300240278244,40.198670435374
187500,-0.343678742647171,40.1276495658031
187610,-0.34388592839241,39.5594621745158
187720,-0.34305727481842,40.0566184788721
187830,-0.344300240278244,39.6304830440867
187940,-0.34388592839241,39.4884310875849
188040,-0.34305727481842,39.4174102180139
188150,-0.344507396221161,39.2753684788721
188260,-0.344093084335327,39.0622956527994
188370,-0.343471586704254,39.2043476093012
188480,-0.344300240278244,38.8492330440867
188590,-0.34305727481842,39.1333267397303
188700,-0.343264430761337,38.9912850005885
188810,-0.340157032012939,39.9145767397303
188920,-0.343678742647171,39.6304932614467
189030,-0.344093084335327,39.7015141310176
189140,-0.344300240278244,39.5594723918758
189250,-0.342642962932587,39.7725350005885
189350,-0.342850118875504,40.198670435374
189460,-0.34388592839241,39.9145767397303
189570,-0.344093084335327,39.6304830440867
189680,-0.34305727481842,39.6304830440867
189790,-0.343471586704254,40.2696913049449
189900,-0.343471586704254,40.198670435374
190010,-0.343264430761337,40.3407121745158
190120,-0.344093084335327,40.0566184788721
190230,-0.344300240278244,40.0566184788721
190340,-0.34305727481842,40.1986602180139
190450,-0.34305727481842,40.5537747832285
190560,-0.344507396221161,40.1986602180139
190670,-0.343678742647171,39.9145767397303
190770,-0.34388592839241,39.7725247832285
190880,-0.342850118875504,40.0566082615121
190990,-0.342642962932587,40.5537645658685
191100,-0.34388592839241,40.0566082615121
191210,-0.34388592839241,39.9855771745812
191320,-0.342228621244431,40.3406917397957
191430,-0.342228621244431,41.1219417397957
191540,-0.344093084335327,40.908868913723
191650,-0.34243580698967,41.3349941311484
191760,-0.343264430761337,41.4060150007193
191870,-0.344093084335327,41.5480567398611
191980,-0.344300240278244,41.1929421746466
192080,-0.34305727481842,41.5480567398611
192190,-0.344714552164078,40.837837826792
192300,-0.344300240278244,40.1276086963629
192410,-0.343678742647171,40.4827232615775
192520,-0.342850118875504,40.837837826792
192630,-0.34388592839241,40.2696504355048
192740,-0.343471586704254,40.2696504355048
192850,-0.343471586704254,40.056587826792
192960,-0.344093084335327,39.8435150007193
193070,-0.344300240278244,39.2043169572211
193180,-0.34243580698967,39.4884004355048
193290,-0.344714552164078,38.8492023920066
193400,-0.343678742647171,38.4230771745812
193500,-0.343678742647171,38.4230771745812
193610,-0.342642962932587,38.7781815224357
193720,-0.342642962932587,39.1332858702902
193830,-0.343471586704254,38.9912441311484
193940,-0.34388592839241,38.7781713050757
194050,-0.343471586704254,38.494087826792
194160,-0.34388592839241,38.3520358702902
194270,-0.342642962932587,38.9202130442175
194380,-0.341399997472763,39.4883902181447
194490,-0.34243580698967,40.2696300007847
194600,-0.343471586704254,40.3406508703556
194710,-0.34388592839241,40.3406508703556
194810,-0.344921708106995,39.7724736964283
194920,-0.343471586704254,40.1275882616429
195030,-0.343471586704254,40.1986091312138
195140,-0.344507396221161,40.1275882616429
195250,-0.343264430761337,40.1275882616429
195360,-0.343471586704254,39.9855465225011
195470,-0.343471586704254,40.1275984790029
195580,-0.344921708106995,39.8435150007193
195690,-0.343264430761337,39.9145358702902
195800,-0.34243580698967,40.4827130442175
195910,-0.344093084335327,40.1275984790029
196020,-0.34305727481842,40.3406610877156
196130,-0.344093084335327,40.5537236964283
196230,-0.34388592839241,40.6957654355701
196340,-0.343471586704254,40.6957654355701
196450,-0.343471586704254,40.9798591312138
196560,-0.343471586704254,41.1929319572865
196670,-0.344300240278244,41.2639528268574
196780,-0.343678742647171,41.1219110877156
196890,-0.342021465301514,41.7611193485738
197000,-0.34305727481842,41.6900984790029
197110,-0.343264430761337,41.6900984790029
197220,-0.343471586704254,41.6900984790029
197330,-0.344093084335327,41.4060047833593
197440,-0.342642962932587,41.5480465225011
197540,-0.344507396221161,41.5480465225011
197650,-0.344093084335327,41.619067392072
197760,-0.34388592839241,41.8321300007847
197870,-0.343471586704254,41.7611091312138
197980,-0.342850118875504,42.1872445659992
198090,-0.344714552164078,42.0452028268574
198200,-0.343471586704254,42.1162236964283
198310,-0.34305727481842,42.3292863051411
198420,-0.34388592839241,42.1872343486392
198530,-0.342642962932587,42.7554115225665
198640,-0.343471586704254,42.7554115225665
198750,-0.343471586704254,42.8264323921374
198860,-0.342850118875504,42.9684741312792
198960,-0.345336049795151,42.329265870421
199070,-0.342642962932587,42.6843702182755
199180,-0.34305727481842,42.8974328269882
199290,-0.34305727481842,42.9684536965591
199400,-0.343471586704254,42.9684536965591
199510,-0.344300240278244,42.6133391313446
199620,-0.343678742647171,42.7553910878464
199730,-0.344714552164078,42.2582347834901
199840,-0.344300240278244,42.4002765226319
199950,-0.344300240278244,41.8320993487046
200060,-0.343471586704254,41.7610784791337
200170,-0.342642962932587,42.329255653061
200270,-0.34388592839241,42.329255653061
200380,-0.343678742647171,42.1161930443483
200490,-0.344507396221161,41.9031304356355
200600,-0.343678742647171,42.0451823921374
200710,-0.343678742647171,41.9031406529956
200820,-0.34305727481842,41.8321197834247
200930,-0.341814309358597,42.1162134790683
201040,-0.344714552164078,41.9031508703556
201150,-0.344093084335327,42.1162134790683
201260,-0.343264430761337,42.3292863051411
201370,-0.343264430761337,42.6844008703556
201480,-0.342850118875504,42.9684843486392
201590,-0.343264430761337,43.181557174712
201690,-0.343264430761337,43.1105363051411
201800,-0.343471586704254,43.3946300007847
201910,-0.34243580698967,43.8917863051411
202020,-0.344300240278244,43.4656508703556
202130,-0.343264430761337,43.8917863051411
202240,-0.343471586704254,44.1048591312138
202350,-0.343678742647171,44.0338382616429
202460,-0.34388592839241,44.1758800007847
202570,-0.34243580698967,44.3889426094974
202680,-0.344093084335327,44.1048489138538
202790,-0.344093084335327,42.7554217399265
202900,-0.343678742647171,42.7554217399265
203000,-0.344300240278244,42.6844008703556
203110,-0.344093084335327,42.7554217399265
203220,-0.34305727481842,42.6133800007847
203330,-0.343678742647171,42.3292965225011
203440,-0.343264430761337,42.5423693485738
203550,-0.344093084335327,42.5423693485738
203660,-0.343264430761337,42.4713484790029
203770,-0.342642962932587,42.7554319572865
203880,-0.34305727481842,42.8974736964283
203990,-0.343471586704254,42.8264528268574
204100,-0.344093084335327,42.8264528268574
204210,-0.34305727481842,43.2525882616429
204320,-0.342642962932587,43.3946300007847
204420,-0.343678742647171,43.181567392072
204530,-0.34305727481842,43.6787236964283
204640,-0.344300240278244,43.4656508703556
204750,-0.343678742647171,43.5366819572865
204860,-0.343471586704254,43.3236193485738
204970,-0.343678742647171,42.9685150007193
205080,-0.344093084335327,42.8974941311484
205190,-0.34305727481842,43.181587826792
205300,-0.342642962932587,43.0395358702902
205410,-0.343264430761337,42.6844213050757
205520,-0.343471586704254,42.8974941311484
205630,-0.343264430761337,42.6134106528648
205730,-0.343471586704254,42.5423897832939
205840,-0.344093084335327,42.5423897832939
205950,-0.344300240278244,42.5423897832939
206060,-0.343264430761337,42.471368913723
206170,-0.34305727481842,43.0395460876502
206280,-0.343678742647171,43.252618913723
206390,-0.343471586704254,43.3236397832939
206500,-0.34388592839241,42.9685252180793
206610,-0.342228621244431,43.5367126093666
206720,-0.34305727481842,43.6787543485084
206830,-0.343471586704254,43.6787543485084
206940,-0.343471586704254,43.8918271745812
207050,-0.342642962932587,44.4600043485084
207150,-0.344507396221161,43.7497854354394
207260,-0.34305727481842,44.3179626093666
207370,-0.343678742647171,44.3179626093666
207480,-0.343471586704254,44.3889834789375
207590,-0.343678742647171,44.033879131083
207700,-0.342642962932587,44.033879131083
207810,-0.343471586704254,44.033879131083
207920,-0.342642962932587,44.4600145658685
208030,-0.34305727481842,44.6020563050103
208140,-0.343264430761337,44.815129131083
208250,-0.34388592839241,44.3889936962976
208360,-0.344093084335327,43.4657019571558
208460,-0.344093084335327,42.8975247832285
208570,-0.34388592839241,42.7554728267267
208680,-0.343678742647171,42.8265039136576
208790,-0.34388592839241,43.1816082615121
208900,-0.343264430761337,43.252629131083
209010,-0.344714552164078,42.8264936962976
209120,-0.344093084335327,42.9685354354394
209230,-0.343678742647171,42.8264936962976
209340,-0.34305727481842,42.9685354354394
209450,-0.34388592839241,42.8264834789375
209560,-0.34305727481842,43.4656815224357
209670,-0.343471586704254,43.3946606528648
209780,-0.34305727481842,43.1815980441521
209880,-0.34388592839241,43.252618913723
209990,-0.344093084335327,42.8975043485084
210100,-0.342850118875504,43.3236397832939
210210,-0.34243580698967,43.8207960876502
210320,-0.34305727481842,43.962837826792
210430,-0.343471586704254,43.962837826792
210540,-0.343264430761337,44.0338586963629
210650,-0.34388592839241,44.1759004355048
210760,-0.343264430761337,44.3179421746466
210870,-0.34388592839241,43.6787339137884
210980,-0.344714552164078,43.1105567398611
211090,-0.342850118875504,43.2525984790029
211190,-0.344300240278244,42.9685047833593
211300,-0.344300240278244,42.8974839137884
211410,-0.343264430761337,42.6844213050757
211520,-0.344507396221161,42.6844213050757
211630,-0.34388592839241,42.7554421746466
211740,-0.342850118875504,43.1105567398611
211850,-0.342850118875504,43.3236193485738
211960,-0.34388592839241,42.9685047833593
212070,-0.343264430761337,43.4656610877156
212180,-0.34305727481842,43.6077028268574
212290,-0.344507396221161,43.1105465225011
212400,-0.34305727481842,43.3946402181447
212510,-0.344300240278244,42.8264630442175
212610,-0.344300240278244,42.5423693485738
212720,-0.343678742647171,42.4713484790029
212830,-0.34388592839241,42.1162339137884
212940,-0.344300240278244,42.4713484790029
213050,-0.34243580698967,42.5423693485738
213160,-0.34305727481842,42.5423693485738
213270,-0.343471586704254,42.400327609432
213380,-0.34305727481842,42.5423693485738
213490,-0.34305727481842,42.9685047833593
213600,-0.343471586704254,43.0395256529302
213710,-0.343471586704254,43.4656610877156
213820,-0.343471586704254,43.7497547833593
213920,-0.344300240278244,43.7497547833593
214030,-0.34305727481842,43.8917965225011
214140,-0.344300240278244,43.3236193485738
214250,-0.343264430761337,43.5366921746466
214360,-0.343264430761337,43.6787339137884
214470,-0.34388592839241,43.8917965225011
214580,-0.343678742647171,43.8917965225011
214690,-0.345128864049912,43.3946402181447
214800,-0.344093084335327,43.0395256529302
214910,-0.344714552164078,42.0452130442175
215020,-0.342850118875504,42.6844110877156
215130,-0.344093084335327,42.6844110877156
215240,-0.344300240278244,42.3292965225011
215340,-0.343471586704254,42.2582756529302
215450,-0.343264430761337,42.1162339137884
215560,-0.34305727481842,42.1872547833593
215670,-0.344300240278244,41.8321402181447
215780,-0.34388592839241,41.6900882616429
215890,-0.344093084335327,41.1219110877156
216000,-0.343471586704254,41.4060047833593
216110,-0.343471586704254,41.3349839137884
216220,-0.343471586704254,41.3349839137884
216330,-0.343471586704254,41.4060047833593
216440,-0.342850118875504,41.7611193485738
216550,-0.34305727481842,41.5480567398611
216650,-0.343471586704254,41.7611295659339
216760,-0.34305727481842,42.1162441311484
216870,-0.342850118875504,42.400327609432
216980,-0.343264430761337,42.7554421746466
217090,-0.34305727481842,43.1105567398611
217200,-0.343471586704254,42.9685150007193
217310,-0.342642962932587,43.3236193485738
217420,-0.34305727481842,43.3946402181447
217530,-0.34305727481842,43.7497547833593
217640,-0.342850118875504,43.8917965225011
217750,-0.343471586704254,43.6077130442175
217860,-0.343678742647171,43.3946504355048
217970,-0.344507396221161,43.0395358702902
218070,-0.343264430761337,43.3236295659339
218180,-0.34388592839241,43.0395358702902
218290,-0.343471586704254,42.7554523920066
218400,-0.343264430761337,42.8974941311484
218510,-0.344507396221161,42.400337826792
218620,-0.344714552164078,42.2582960876502
218730,-0.342228621244431,42.7554523920066
218840,-0.34243580698967,43.1105567398611
218950,-0.343471586704254,43.181577609432
219060,-0.343678742647171,43.3236295659339
219170,-0.344921708106995,42.6844315224357
219280,-0.342642962932587,42.6844315224357
219380,-0.34388592839241,42.4713586963629
219490,-0.34388592839241,42.3293067398611
219600,-0.343471586704254,42.2582858702902
219710,-0.343264430761337,42.3293067398611
219820,-0.344507396221161,42.1872650007193
219930,-0.343678742647171,42.400337826792
220040,-0.344093084335327,42.1162441311484
220150,-0.34305727481842,42.1162441311484
220260,-0.345128864049912,41.619087826792
220370,-0.344300240278244,41.3349941311484
220480,-0.343471586704254,41.4770460876502
220590,-0.344093084335327,40.837837826792
220700,-0.34243580698967,41.0509004355048
220800,-0.343471586704254,41.0509004355048
220910,-0.34388592839241,40.9088484790029
221020,-0.343471586704254,40.6247650007193
221130,-0.34388592839241,40.837827609432
221240,-0.343264430761337,40.7668067398611
221350,-0.342850118875504,41.0508902181447
221460,-0.343678742647171,40.9798693485738
221570,-0.343471586704254,41.0508902181447
221680,-0.34305727481842,40.9088484790029
221790,-0.344300240278244,40.6247547833593
221900,-0.344714552164078,39.9145358702902
222010,-0.342850118875504,39.9855567398611
222110,-0.343264430761337,39.9855567398611
222220,-0.343678742647171,40.056587826792
222330,-0.343264430761337,40.3406815224357
222440,-0.34305727481842,40.6957960876502
222550,-0.344093084335327,40.6247752180793
222660,-0.34305727481842,40.837837826792
222770,-0.344093084335327,40.7668169572211
222880,-0.344093084335327,40.4827232615775
222990,-0.34388592839241,40.7668067398611
223100,-0.342642962932587,41.2639630442175
223210,-0.342228621244431,41.7611193485738
223320,-0.34305727481842,41.7611193485738
223430,-0.342850118875504,42.1162339137884
223530,-0.342642962932587,42.2582756529302
223640,-0.344093084335327,42.0452028268574
223750,-0.343471586704254,41.9031610877156
223860,-0.34305727481842,42.1872547833593
223970,-0.342228621244431,42.8264630442175
224080,-0.343678742647171,42.5423795659339
224190,-0.343678742647171,42.1162543485084
224300,-0.343264430761337,42.0452334789375
224410,-0.343471586704254,42.0452334789375
224520,-0.342850118875504,42.1872752180793
224630,-0.344300240278244,42.0452334789375
224740,-0.343471586704254,41.9742126093666
224840,-0.34388592839241,41.9742126093666
224950,-0.342642962932587,42.6844315224357
225060,-0.341814309358597,43.0395460876502
225170,-0.343471586704254,43.3236397832939
225280,-0.343264430761337,43.6787543485084
225390,-0.343471586704254,43.6077334789375
225500,-0.342228621244431,44.3889834789375
225610,-0.34243580698967,44.8861397832939
225720,-0.343678742647171,44.6020563050103
225830,-0.343264430761337,44.4600145658685
225940,-0.344300240278244,44.3179728267267
226050,-0.344921708106995,43.7497956527994
226160,-0.34305727481842,43.7497956527994
226260,-0.34243580698967,44.4600145658685
226370,-0.34305727481842,44.4600145658685
226480,-0.34388592839241,44.6020563050103
226590,-0.34388592839241,44.7440980441521
226700,-0.343264430761337,44.8861397832939
226810,-0.344714552164078,44.6020563050103
226920,-0.344300240278244,44.6020563050103
227030,-0.344300240278244,43.9628582615121
227140,-0.34243580698967,44.1759208702248
227250,-0.342642962932587,44.4600043485084
227360,-0.343264430761337,44.3889834789375
227470,-0.34305727481842,44.3889834789375
227580,-0.343264430761337,44.4600043485084
227680,-0.34388592839241,44.3179523920066
227790,-0.34388592839241,44.1759004355048
227900,-0.343678742647171,44.3889732615775
228010,-0.344921708106995,43.7497752180793
228120,-0.344093084335327,43.8207960876502
228230,-0.342850118875504,43.962837826792
228340,-0.34305727481842,44.0338586963629
228450,-0.34305727481842,44.3179523920066
228560,-0.34388592839241,44.2469213050757
228670,-0.342642962932587,45.0991819572865
228780,-0.34243580698967,45.6673591312138
228890,-0.344093084335327,45.8804217399265
228990,-0.344300240278244,45.3832654355701
229100,-0.344300240278244,45.3122445659992
229210,-0.343678742647171,45.525317392072
229320,-0.344093084335327,45.3122445659992
229430,-0.342850118875504,45.4542863051411
229540,-0.34388592839241,45.1701926094974
229650,-0.343678742647171,45.3832654355701
229760,-0.344300240278244,45.2412236964283
229870,-0.34388592839241,45.3122445659992
229980,-0.344300240278244,45.0281508703556
230090,-0.344300240278244,44.744057174712
230200,-0.344300240278244,44.4599634790683
230310,-0.343678742647171,44.3889426094974
230410,-0.343471586704254,44.1758800007847
230520,-0.343264430761337,44.1048591312138
230630,-0.344300240278244,43.8207654355701
230740,-0.342642962932587,43.962807174712
230850,-0.343264430761337,43.8207654355701
230960,-0.342850118875504,43.962807174712
231070,-0.343678742647171,43.7497445659992
231180,-0.344300240278244,43.4656508703556
231290,-0.34388592839241,43.0395154355701
231400,-0.34388592839241,42.7554217399265
231510,-0.344093084335327,42.400307174712
231620,-0.344093084335327,41.9741717399265
231720,-0.344507396221161,41.619057174712
231830,-0.343471586704254,41.6900780442829
231940,-0.34243580698967,42.4002969573519
232050,-0.343471586704254,42.329276087781
232160,-0.34388592839241,42.329276087781
232270,-0.34388592839241,42.1872241312792
232380,-0.343678742647171,42.0451823921374
232490,-0.34305727481842,42.5423386964937
232600,-0.344507396221161,42.6133595660646
232710,-0.343678742647171,42.1162032617083
232820,-0.34305727481842,41.9031406529956
232930,-0.34388592839241,41.7610886964937
233040,-0.343471586704254,41.8321095660646
233140,-0.344300240278244,42.0451721747773
233250,-0.343678742647171,41.6900678269228
233360,-0.344093084335327,41.6190469573519
233470,-0.343678742647171,41.6900780442829
233580,-0.34388592839241,41.548026087781
233690,-0.343471586704254,41.4770052182101
233800,-0.342850118875504,42.0451823921374
233910,-0.34243580698967,42.4713076095628
234020,-0.343678742647171,42.6133595660646
234130,-0.343678742647171,42.4002969573519
234240,-0.34388592839241,42.8264221747773
234350,-0.343471586704254,43.110515870421
234450,-0.343471586704254,43.110515870421
234560,-0.344093084335327,43.110515870421
234670,-0.343678742647171,42.6843906529956
234780,-0.34305727481842,42.8264323921374
234890,-0.34305727481842,43.110526087781
235000,-0.344714552164078,42.6843906529956
235110,-0.34388592839241,42.6843906529956
235220,-0.34388592839241,42.4713178269228
235330,-0.343264430761337,42.329276087781
235440,-0.342642962932587,42.6843804356355
235550,-0.343471586704254,42.6843804356355
235660,-0.343264430761337,42.6133595660646
235770,-0.342850118875504,43.110515870421
235870,-0.343471586704254,43.5366513052064
235980,-0.343471586704254,43.3235886964937
236090,-0.344714552164078,42.8264323921374
236200,-0.342850118875504,43.110515870421
236310,-0.343678742647171,42.9684741312792
236420,-0.344507396221161,42.4713178269228
236530,-0.343264430761337,42.7554115225665
236640,-0.343264430761337,42.6843906529956
236750,-0.343678742647171,42.8264426094974
236860,-0.343471586704254,43.0395154355701
236970,-0.342850118875504,43.3946300007847
237080,-0.343471586704254,43.1105465225011
237180,-0.343471586704254,42.6844110877156
237290,-0.34388592839241,42.400317392072
237400,-0.343264430761337,42.2582756529302
237510,-0.344300240278244,41.6900984790029
237620,-0.34243580698967,42.2582756529302
237730,-0.343264430761337,42.3292965225011
237840,-0.344300240278244,41.9031610877156
237950,-0.344093084335327,41.2639528268574
238060,-0.343678742647171,41.2639528268574
238170,-0.34305727481842,41.4770154355701
238280,-0.344093084335327,41.1929217399265
238390,-0.34305727481842,41.3349634790683
238500,-0.343264430761337,41.1929217399265
238600,-0.343264430761337,41.5480363051411
238710,-0.343678742647171,41.4770154355701
238820,-0.343264430761337,41.6900882616429
238930,-0.343264430761337,41.4770256529302
239040,-0.344714552164078,40.4827130442175
239150,-0.344300240278244,40.1986193485738
239260,-0.343471586704254,40.1275984790029
239370,-0.344300240278244,39.8435047833593
239480,-0.34388592839241,39.275317392072
239590,-0.343471586704254,38.9202130442175
239700,-0.344507396221161,38.6361193485738
239810,-0.342228621244431,38.9912339137884
239910,-0.34388592839241,39.1332756529302
240020,-0.342850118875504,39.8434945659992
240130,-0.343678742647171,39.6304319572865
240240,-0.343264430761337,39.3463484790029
240350,-0.343264430761337,39.275327609432
240460,-0.343264430761337,39.4884004355048
240570,-0.34305727481842,39.7724941311484
240680,-0.34243580698967,40.056577609432
240790,-0.342850118875504,40.6957756529302
240900,-0.344093084335327,40.7667965225011
241010,-0.34305727481842,41.1929319572865
241120,-0.343471586704254,40.837827609432
241230,-0.344093084335327,40.3406713050757
241330,-0.344714552164078,39.8435150007193
241440,-0.344093084335327,39.4884004355048
241550,-0.343678742647171,39.3463586963629
241660,-0.343264430761337,39.5594315224357
241770,-0.342021465301514,40.1986397832939
241880,-0.343678742647171,40.1986397832939
241990,-0.344093084335327,40.4827232615775
242100,-0.343471586704254,40.6957960876502
242210,-0.342850118875504,40.6957960876502
242320,-0.34388592839241,40.4117023920066
242430,-0.342228621244431,40.6957960876502
242540,-0.34305727481842,40.9798897832939
242640,-0.342228621244431,0
242750,-0.343471586704254,0
242860,-0.343471586704254,0
242970,-0.342021465301514,0
243080,-0.343264430761337,0
243190,-0.342642962932587,0
243300,-0.342228621244431,0
243410,-0.34388592839241,18.9241175612602
243520,-0.342642962932587,19.4449467319896
243630,-0.34305727481842,19.7053550734483
243740,-0.34388592839241,19.8789606344208
243850,-0.343471586704254,20.0525786832052
243960,-0.343678742647171,20.3129995124758
244060,-0.343264430761337,20.7470259027189
244170,-0.34305727481842,21.2678550734483
244280,-0.344921708106995,49.0510778032389
244390,-0.343471586704254,49.0510778032389
244500,-0.344300240278244,48.7720576523902
244610,-0.34305727481842,49.1068802278145
244720,-0.342642962932587,49.1068802278145
244830,-0.34305727481842,49.1626826523902
244940,-0.344093084335327,48.8278600769658
245050,-0.34388592839241,48.7720496244194
245160,-0.342642962932587,49.218477048995
245270,-0.343678742647171,49.2742875015414
245370,-0.343471586704254,49.3859003786633
245480,-0.343471586704254,49.5533156803609
245590,-0.343471586704254,49.7207309820584
245700,-0.343471586704254,49.9997511329072
245810,-0.344300240278244,49.7765334066341
245920,-0.343678742647171,49.4417188591804
246030,-0.34305727481842,49.5533237083316
246140,-0.344093084335327,49.497521283756
246250,-0.343264430761337,49.6649365854536
246360,-0.34388592839241,49.6091261329072
246470,-0.344093084335327,49.3301059820584
246580,-0.343264430761337,49.6649285574828
246690,-0.342228621244431,50.0555535574828
246790,-0.34243580698967,50.2229608312097
246900,-0.34388592839241,50.2229608312097
247010,-0.343678742647171,50.1671584066341
247120,-0.34243580698967,50.6693882557853
247230,-0.344507396221161,50.4461705295121
247340,-0.343471586704254,50.6135858312097
247450,-0.344507396221161,50.3903681049365
247560,-0.344714552164078,50.1671584066341
247670,-0.343471586704254,50.1671584066341
247780,-0.342850118875504,50.1671584066341
247890,-0.34305727481842,49.9997511329072
248000,-0.34243580698967,50.3345656803609
248100,-0.343678742647171,50.3345656803609
248210,-0.34388592839241,50.3345656803609
248320,-0.344093084335327,50.1671503786633
248430,-0.34388592839241,50.0555375015414
248540,-0.34305727481842,50.3345576523902
248650,-0.344093084335327,50.2229447752682
248760,-0.344300240278244,49.8881221998438
248870,-0.343471586704254,49.7765173506926
248980,-0.343678742647171,50.0555375015414
249090,-0.345750361680985,60.7638181240559
249200,-0.343678742647171,60.8072261051302
249310,-0.343264430761337,60.8072261051302
249420,-0.343471586704254,60.6336191566564
249520,-0.343264430761337,60.6770208937748
249630,-0.342642962932587,60.8072261051302
249740,-0.343471586704254,60.6770208937748
249850,-0.343264430761337,60.7204226308933
249960,-0.344093084335327,60.590211175582
250070,-0.342850118875504,60.9808330536041
250180,-0.344714552164078,60.590211175582
250290,-0.344300240278244,60.4599997202708
250400,-0.343471586704254,60.677014649819
250510,-0.343471586704254,60.6336129127005
250620,-0.34388592839241,60.5034014573893
250730,-0.343678742647171,60.5034014573893
250830,-0.343264430761337,60.5468031945077
250940,-0.344300240278244,60.2429847907226
251050,-0.34388592839241,60.1561750725298
251160,-0.343678742647171,60.1127733354113
251270,-0.343264430761337,60.2429847907226
251380,-0.343471586704254,60.1995830536041
251490,-0.34305727481842,60.4599997202708
251600,-0.342642962932587,60.4165979831523
251710,-0.344093084335327,60.2429847907226
251820,-0.344300240278244,60.2429847907226
251930,-0.344300240278244,60.1995830536041
252040,-0.343678742647171,60.1995830536041
252150,-0.343264430761337,60.1561813164856
252250,-0.34305727481842,60.3731962460338
252360,-0.343471586704254,60.2863927717969
252470,-0.34305727481842,60.3297945089154
252580,-0.343264430761337,60.3297945089154
252690,-0.343264430761337,60.4165979831523
252800,-0.34305727481842,60.4599997202708
252910,-0.344507396221161,60.1995830536041
253020,-0.34388592839241,60.373190002078
253130,-0.342642962932587,60.7204101429816
253240,-0.343264430761337,60.7638118801001
253350,-0.343678742647171,60.8940233354113
253460,-0.343471586704254,60.9808330536041
253560,-0.343678742647171,60.9374313164856
253670,-0.344093084335327,61.0242347907226
253780,-0.343678742647171,60.7204163869375
253890,-0.342642962932587,60.9808330536041
254000,-0.34388592839241,60.7638181240559
254110,-0.34388592839241,60.7204101429816
254220,-0.344093084335327,60.5467969505519
254330,-0.34388592839241,60.4165854952406
254440,-0.343264430761337,60.4165854952406
254550,-0.344300240278244,60.1561688285739
254660,-0.34388592839241,59.8523504247888
254770,-0.343471586704254,59.7221452134334
254880,-0.344093084335327,59.7221452134334
254980,-0.342642962932587,59.8089486876703
255090,-0.34305727481842,59.8957521619073
255200,-0.343264430761337,60.069365354337
255310,-0.342642962932587,60.5033889694775
255420,-0.343678742647171,60.5901986876703
255530,-0.343264430761337,60.6770021619073
255640,-0.343678742647171,60.5901986876703
255750,-0.343678742647171,60.2429785467667
255860,-0.345128864049912,59.9391601429816
255970,-0.344300240278244,59.8957584058631
256080,-0.344093084335327,59.7655469505519
256190,-0.343678742647171,59.591940002078
256290,-0.343678742647171,59.6353479831523
256400,-0.343264430761337,59.4183330536041
256510,-0.343471586704254,59.3315295793672
256620,-0.34243580698967,59.2881215982929
256730,-0.343471586704254,59.2881215982929
256840,-0.343471586704254,59.2881215982929
256950,-0.34243580698967,59.2013118801001
257060,-0.34305727481842,59.2447136172185
257170,-0.343471586704254,59.0711066687447
257280,-0.343678742647171,58.7672882649595
257390,-0.34305727481842,58.9409014573893
257500,-0.34305727481842,58.8540979831523
257610,-0.343471586704254,58.7672945089154
257710,-0.344507396221161,58.63708929756
257820,-0.34388592839241,58.5502795793672
257930,-0.344093084335327,58.4634698611744
258040,-0.344714552164078,58.1596514573893
258150,-0.342850118875504,58.2030531945077
258260,-0.34388592839241,58.4200618801001
258370,-0.343471586704254,58.4200618801001
258480,-0.345543205738068,58.1596452134334
258590,-0.344507396221161,57.8558268096483
258700,-0.342850118875504,57.8124250725298
258810,-0.344093084335327,57.5954101429816
258920,-0.34388592839241,57.6388118801001
259020,-0.34388592839241,57.6388118801001
259130,-0.344300240278244,57.2915917391965
259240,-0.342850118875504,57.4651986876703
259350,-0.34305727481842,57.5520021619073
259460,-0.344300240278244,57.3783889694775
259570,-0.343264430761337,57.421790706596
259680,-0.34388592839241,57.3349809884032
259790,-0.344300240278244,57.3349809884032
259900,-0.344093084335327,57.2481712702104
260010,-0.34305727481842,57.2481712702104
260120,-0.343471586704254,57.3783827255217
260230,-0.343678742647171,57.2915792512848
260340,-0.34388592839241,57.2915792512848
260440,-0.342850118875504,57.5519959179514
260550,-0.344507396221161,57.2915792512848
260660,-0.343471586704254,57.0311625846181
260770,-0.34305727481842,56.9009573732627
260880,-0.34305727481842,57.0745705656924
260990,-0.343471586704254,57.1179723028109
261100,-0.344507396221161,56.6839486876703
261210,-0.343678742647171,56.8575618801001
261320,-0.343678742647171,56.8141601429816
261430,-0.34388592839241,56.944365354337
261540,-0.344921708106995,56.9009636172185
261650,-0.343678742647171,56.8575618801001
261750,-0.34243580698967,56.944365354337
261860,-0.343471586704254,56.8575618801001
261970,-0.343471586704254,56.6405531945077
262080,-0.344714552164078,56.4235382649595
262190,-0.343678742647171,56.4669462460338
262300,-0.34305727481842,56.683961175582
262410,-0.343678742647171,56.7273691566564
262520,-0.343264430761337,56.6839674195379
262630,-0.344714552164078,56.5537622081825
262740,-0.343264430761337,56.7707771377307
262850,-0.343264430761337,56.8141788748491
262960,-0.344300240278244,56.6839674195379
263070,-0.344300240278244,56.987785823323
263170,-0.343264430761337,57.07458929756
263280,-0.343471586704254,57.0311875604415
263390,-0.34160715341568,57.4218094384636
263500,-0.342228621244431,57.6388243680118
263610,-0.342850118875504,57.5954226308933
263720,-0.344507396221161,57.3784077013451
263830,-0.342850118875504,57.465211175582
263940,-0.343471586704254,57.5954226308933
264050,-0.342642962932587,57.6388243680118
264160,-0.343264430761337,57.9426427717969
264270,-0.344093084335327,57.9860445089154
264380,-0.34305727481842,58.0728479831523
264480,-0.343471586704254,58.0728479831523
264590,-0.343678742647171,58.1162559642266
264700,-0.34305727481842,58.246461175582
264810,-0.342228621244431,58.4634761051302
264920,-0.342850118875504,58.7672945089154
265030,-0.344300240278244,58.6804910346784
265140,-0.34388592839241,58.6370830536041
265250,-0.343678742647171,58.5502795793672
265360,-0.343678742647171,58.5068778422487
265470,-0.343264430761337,58.4634761051302
265580,-0.344093084335327,58.1596577013451
265690,-0.343471586704254,58.2898691566564
265800,-0.342228621244431,58.7238990157528
265900,-0.343264430761337,58.9409139453009
266010,-0.34305727481842,59.0711191566564
266120,-0.343471586704254,59.0277174195379
266230,-0.344093084335327,58.8107024899897
266340,-0.342850118875504,58.9409077013451
266450,-0.343471586704254,58.8541042271082
266560,-0.34388592839241,58.7238927717969
266670,-0.343471586704254,58.6804910346784
266780,-0.34388592839241,58.5068778422487
266890,-0.343264430761337,58.7672945089154
267000,-0.343264430761337,58.8975059642266
267110,-0.344300240278244,58.550285823323
267210,-0.343678742647171,58.4634823490861
267320,-0.342642962932587,58.6804910346784
267430,-0.344093084335327,58.5502795793672
267540,-0.342850118875504,58.7238865278411
267650,-0.343678742647171,58.8106962460338
267760,-0.343471586704254,58.8540979831523
267870,-0.34305727481842,58.7672945089154
267980,-0.34305727481842,58.9409077013451
268090,-0.343471586704254,59.0277174195379
268200,-0.343471586704254,59.1579288748491
268310,-0.343264430761337,59.2881403301604
268420,-0.342642962932587,59.4183455415158
268530,-0.343264430761337,59.635360471064
268630,-0.344093084335327,59.5919587339455
268740,-0.344300240278244,59.4183455415158
268850,-0.343471586704254,59.5485569968271
268960,-0.344714552164078,59.1145333816865
269070,-0.344093084335327,58.8975184521383
269180,-0.344093084335327,58.7239052597086
269290,-0.344714552164078,58.2898816445681
269400,-0.342850118875504,58.4634885930419
269510,-0.344093084335327,58.2898754006122
269620,-0.34243580698967,58.550285823323
269730,-0.343678742647171,58.550285823323
269840,-0.343471586704254,58.8975059642266
269940,-0.342642962932587,59.2447261051302
270050,-0.343264430761337,59.41833929756
270160,-0.343471586704254,59.4617410346784
270270,-0.343264430761337,59.5485445089154
270380,-0.34388592839241,59.4183330536041
270490,-0.34305727481842,59.5051365278411
270600,-0.344300240278244,59.114514649819
270710,-0.343678742647171,59.0711129127005
270820,-0.343678742647171,59.027711175582
270930,-0.34305727481842,58.8975059642266
271040,-0.34243580698967,59.027711175582
271150,-0.344300240278244,58.8540979831523
271260,-0.343678742647171,58.8540979831523
271360,-0.343264430761337,58.8106962460338
271470,-0.343471586704254,58.7238927717969
271580,-0.344093084335327,58.5936813164856
271690,-0.344093084335327,58.6804847907226
271800,-0.34388592839241,58.6804847907226
271910,-0.344093084335327,58.6804847907226
272020,-0.343678742647171,58.8974997202708
272130,-0.343678742647171,58.7238927717969
272240,-0.344507396221161,58.5936875604415
272350,-0.344507396221161,58.3766726308933
272460,-0.343471586704254,58.8107024899897
272570,-0.34388592839241,58.9409077013451
272670,-0.343264430761337,58.8541042271082
272780,-0.343678742647171,58.9409139453009
272890,-0.342850118875504,59.1579288748491
273000,-0.343471586704254,59.2447385930419
273110,-0.34305727481842,59.5051552597086
273220,-0.343264430761337,59.4183517854717
273330,-0.342850118875504,59.4617535225901
273440,-0.342642962932587,59.8089736634937
273550,-0.34388592839241,59.6787622081825
273660,-0.343678742647171,59.7221701892568
273770,-0.344300240278244,59.7221701892568
273880,-0.344714552164078,59.5919649779014
273990,-0.34243580698967,59.7221701892568
274090,-0.344300240278244,59.5485569968271
274200,-0.343678742647171,59.5485569968271
274310,-0.344300240278244,59.4617535225901
274420,-0.34388592839241,59.2447385930419
274530,-0.343678742647171,59.4183517854717
274640,-0.34305727481842,59.5051552597086
274750,-0.344093084335327,59.2881403301604
274860,-0.344093084335327,59.0711254006122
274970,-0.345128864049912,58.7239052597086
275080,-0.34388592839241,58.854110471064
275190,-0.343264430761337,58.9409139453009
275300,-0.344093084335327,58.8541042271082
275400,-0.343471586704254,58.9409139453009
275510,-0.344507396221161,59.0277174195379
275620,-0.344093084335327,58.9409077013451
275730,-0.343678742647171,58.6804972786343
275840,-0.34305727481842,58.7673007528712
275950,-0.344093084335327,58.63708929756
276060,-0.34305727481842,58.9843094384636
276170,-0.344300240278244,58.8540979831523
276280,-0.344300240278244,58.5936813164856
276390,-0.34388592839241,58.5502733354113
276500,-0.343678742647171,58.4634698611744
276610,-0.343678742647171,58.6804847907226
276720,-0.343471586704254,58.6370830536041
276820,-0.344714552164078,58.333264649819
276930,-0.343471586704254,58.5068778422487
277040,-0.344300240278244,58.5068778422487
277150,-0.343471586704254,58.4634761051302
277260,-0.345336049795151,58.0728479831523
277370,-0.343471586704254,57.6822261051302
277480,-0.342850118875504,57.552014649819
277590,-0.344300240278244,57.2481962460338
277700,-0.34388592839241,57.3784014573893
277810,-0.34305727481842,57.3349997202708
277920,-0.344093084335327,57.2047882649595
278030,-0.344300240278244,56.8575681240559
278130,-0.343471586704254,56.8141663869375
278240,-0.344300240278244,56.770764649819
278350,-0.344507396221161,56.4669462460338
278460,-0.343471586704254,56.4669462460338
278570,-0.343264430761337,56.5537497202708
278680,-0.342642962932587,56.6405531945077
278790,-0.343471586704254,56.3801365278411
278900,-0.34305727481842,56.3367347907226
279010,-0.342642962932587,56.6839549316262
279120,-0.343471586704254,56.770764649819
279230,-0.344300240278244,56.6405531945077
279340,-0.344921708106995,56.3801365278411
279450,-0.344300240278244,56.1631215982929
279550,-0.343678742647171,56.2499313164856
279660,-0.343264430761337,56.2933330536041
279770,-0.34243580698967,56.2499250725298
279880,-0.34243580698967,56.4235320210037
279990,-0.344507396221161,56.1197136172185
280100,-0.342850118875504,56.2499188285739
280210,-0.343471586704254,56.3801302838852
280320,-0.34305727481842,56.3367285467667
280430,-0.342642962932587,56.5103354952406
280540,-0.344093084335327,56.4669337581221
280650,-0.343471586704254,56.4669337581221
280760,-0.343678742647171,56.5103417391965
280860,-0.343678742647171,56.4235382649595
280970,-0.343471586704254,56.3801365278411
281080,-0.343264430761337,56.5971514573893
281190,-0.344093084335327,56.5103417391965
281300,-0.342850118875504,56.466940002078
281410,-0.343471586704254,56.5971514573893
281520,-0.34388592839241,56.3801365278411
281630,-0.34388592839241,56.3367285467667
281740,-0.343264430761337,56.3801302838852
281850,-0.343471586704254,56.2933268096483
281960,-0.34388592839241,56.1197136172185
282070,-0.343471586704254,56.1197136172185
282180,-0.34388592839241,56.0329038990257
282280,-0.343471586704254,55.9895021619073
282390,-0.344093084335327,55.6856837581221
282500,-0.34243580698967,55.859290706596
282610,-0.344093084335327,55.859290706596
282720,-0.34388592839241,55.946094180833
282830,-0.344300240278244,55.7724809884032
282940,-0.34305727481842,56.1197011293068
283050,-0.34305727481842,56.336716058855
283160,-0.34388592839241,56.3801177959735
283270,-0.342642962932587,56.814141411114
283380,-0.342850118875504,56.814141411114
283490,-0.34388592839241,56.8575431482325
283590,-0.34305727481842,56.7273379368771
283700,-0.343264430761337,56.814141411114
283810,-0.343678742647171,56.7707396739956
283920,-0.34388592839241,56.5103230073289
284030,-0.343264430761337,56.5103230073289
284140,-0.34305727481842,56.5971264815658
284250,-0.344300240278244,56.3801115520176
284360,-0.34305727481842,56.5537247444474
284470,-0.343678742647171,56.423519533092
284580,-0.343471586704254,56.5971327255217
284690,-0.344093084335327,56.5103230073289
284800,-0.34388592839241,56.4669150262546
284910,-0.34305727481842,56.4669150262546
285010,-0.342850118875504,56.3801115520176
285120,-0.344093084335327,56.4235132891361
285230,-0.34388592839241,56.3801053080618
285340,-0.344300240278244,56.1630903785136
285450,-0.344507396221161,55.9460754489654
285560,-0.34388592839241,55.9894771860839
285670,-0.343264430761337,56.1630903785136
285780,-0.344093084335327,56.1196886413951
285890,-0.344300240278244,56.0762869042767
286000,-0.343678742647171,56.0762869042767
286110,-0.343678742647171,56.0762869042767
286220,-0.344300240278244,56.1196886413951
286320,-0.34388592839241,56.2498938527505
286430,-0.343264430761337,56.293295589869
286540,-0.34305727481842,56.4669087822987
286650,-0.343471586704254,56.4235070451803
286760,-0.34305727481842,56.5537122565357
286870,-0.343471586704254,56.4235070451803
286980,-0.344093084335327,56.293295589869
287090,-0.34388592839241,56.1196823974393
287200,-0.342850118875504,56.2064858716762
287310,-0.342850118875504,56.2064858716762
287420,-0.344093084335327,55.9026674678911
287530,-0.343471586704254,55.9894771860839
287640,-0.34305727481842,56.1196823974393
287740,-0.344921708106995,55.9894771860839
287850,-0.343471586704254,56.2498938527505
287960,-0.343678742647171,55.9894834300397
288070,-0.342642962932587,56.3367035709433
288180,-0.343264430761337,56.4235070451803
288290,-0.344714552164078,56.3367035709433
288400,-0.343264430761337,56.4669150262546
288510,-0.344507396221161,56.2933018338249
288620,-0.344507396221161,55.9894834300397
288730,-0.34305727481842,56.2064983595879
288840,-0.344300240278244,56.1630966224695
288950,-0.344093084335327,56.3801053080618
289050,-0.342850118875504,56.59712023761
289160,-0.34243580698967,56.7707271860839
289270,-0.342850118875504,57.0311438527505
289380,-0.34388592839241,56.9443341345577
289490,-0.34388592839241,57.0745393459132
289600,-0.343264430761337,57.2481525383429
289710,-0.342850118875504,57.4217594868168
289820,-0.343264430761337,57.3783577496983
289930,-0.342850118875504,57.638774416365
290040,-0.342850118875504,57.6821761534834
290150,-0.343471586704254,57.8557893459132
290260,-0.344093084335327,57.8991910830316
290370,-0.343471586704254,57.9860008012244
290470,-0.344507396221161,57.8123876087947
290580,-0.34305727481842,57.9425928201501
290690,-0.343471586704254,57.9425928201501
290800,-0.343264430761337,58.2464112239352
290910,-0.34388592839241,58.1596015057424
291020,-0.343471586704254,58.3332146981722
291130,-0.34388592839241,58.2464049799794
291240,-0.344300240278244,58.4634199095276
291350,-0.343678742647171,58.4200181724091
291460,-0.343678742647171,58.2464112239352
291570,-0.34305727481842,58.5068278906019
291680,-0.342642962932587,58.7672445572686
291780,-0.34305727481842,58.7672445572686
291890,-0.34305727481842,58.9842594868168
292000,-0.343264430761337,59.201274416365
292110,-0.344093084335327,59.0710629610537
292220,-0.345128864049912,58.8974560125798
292330,-0.343471586704254,59.114470942128
292440,-0.344300240278244,58.9408577496983
292550,-0.34388592839241,58.810646294387
292660,-0.34388592839241,58.5502296277204
292770,-0.34305727481842,58.6370331019573
292880,-0.343471586704254,58.5502296277204
292990,-0.344714552164078,58.1162060125798
293100,-0.344921708106995,57.8123876087947
293200,-0.344507396221161,57.7689858716762
293310,-0.344300240278244,57.8991910830316
293420,-0.343678742647171,58.0294025383429
293530,-0.343678742647171,58.0294025383429
293640,-0.343678742647171,57.9425990641059
293750,-0.343678742647171,57.6821886413951
293860,-0.342850118875504,57.5953851671582
293970,-0.344093084335327,57.6821886413951
294080,-0.344093084335327,57.4217719747285
294190,-0.34305727481842,57.5085754489654
294300,-0.34243580698967,57.6387806603208
294410,-0.343264430761337,57.5085754489654
294510,-0.342642962932587,57.8123938527505
294620,-0.344093084335327,57.6821823974393
294730,-0.344921708106995,57.4217657307726
294840,-0.344093084335327,57.3349560125798
294950,-0.343678742647171,57.2915542754614
295060,-0.344300240278244,57.0745393459132
295170,-0.34305727481842,57.2915542754614
295280,-0.343471586704254,57.1613490641059
295390,-0.343264430761337,57.2047508012244
295500,-0.34388592839241,57.2047508012244
295610,-0.343471586704254,57.2915605194172
295720,-0.344093084335327,57.1179473269875
295830,-0.343264430761337,57.1613490641059
295930,-0.34243580698967,57.4651674678911
296040,-0.344507396221161,57.2481525383429
296150,-0.343471586704254,57.3349622565357
296260,-0.343471586704254,57.3349622565357
296370,-0.344714552164078,57.2047570451803
296480,-0.343678742647171,56.9443466224695
296590,-0.343264430761337,57.1179598148992
296700,-0.34388592839241,57.1179598148992
296810,-0.343264430761337,57.3349747444474
296920,-0.344300240278244,57.0745580777807
297030,-0.344507396221161,56.7707396739956
297140,-0.344093084335327,56.7273379368771
297240,-0.343264430761337,56.5971327255217
297350,-0.343471586704254,56.4669275141663
297460,-0.343264430761337,56.5971389694775
297570,-0.343471586704254,56.5103354952406
297680,-0.343678742647171,56.4235320210037
297790,-0.342850118875504,56.5971389694775
297900,-0.344300240278244,56.5103354952406
298010,-0.343471586704254,56.4669337581221
298120,-0.344300240278244,56.2065170914555
298230,-0.344093084335327,56.2499188285739
298340,-0.343471586704254,56.163115354337
298450,-0.342642962932587,56.3801240399293
298560,-0.343264430761337,56.4235257770478
298660,-0.343264430761337,56.5971389694775
298770,-0.343471586704254,56.6839486876703
298880,-0.34388592839241,56.5103354952406
298990,-0.344093084335327,56.2499188285739
299100,-0.34388592839241,56.2933205656924
299210,-0.343678742647171,56.3367285467667
299320,-0.34305727481842,56.5971452134334
299430,-0.344921708106995,56.5103417391965
299540,-0.342228621244431,56.8575681240559
299650,-0.344921708106995,56.5103479831523
299760,-0.344300240278244,56.4669462460338
299870,-0.343264430761337,56.683961175582
299970,-0.34388592839241,56.6405531945077
300080,-0.342850118875504,56.8141601429816
300190,-0.343678742647171,56.9443715982929
300300,-0.342642962932587,57.2047882649595
300410,-0.343678742647171,57.1179847907226
300520,-0.343264430761337,57.0745830536041
300630,-0.343471586704254,57.0745830536041
300740,-0.342850118875504,57.1179847907226
300850,-0.342850118875504,57.248190002078
300960,-0.343471586704254,57.3784014573893
301070,-0.343678742647171,57.4218094384636
301180,-0.344093084335327,57.1613927717969
301290,-0.343471586704254,57.0311875604415
301390,-0.344300240278244,56.987785823323
301500,-0.344093084335327,56.8575743680118
301610,-0.342850118875504,56.9009761051302
301720,-0.34243580698967,57.4218031945077
301830,-0.344714552164078,57.1613865278411
301940,-0.344507396221161,56.9877733354113
302050,-0.344507396221161,56.5971514573893
302160,-0.344507396221161,56.3367347907226
302270,-0.343471586704254,56.5971514573893
302380,-0.343264430761337,56.5971514573893
302490,-0.343471586704254,56.8141663869375
302600,-0.344300240278244,56.8575681240559
302700,-0.344093084335327,56.6405531945077
302810,-0.344714552164078,56.5537497202708
302920,-0.344714552164078,56.4235445089154
303030,-0.343471586704254,56.29333929756
303140,-0.343471586704254,56.0763306119676
303250,-0.344093084335327,55.8159139453009
303360,-0.34388592839241,55.8159139453009
303470,-0.34388592839241,55.8159139453009
303580,-0.342850118875504,55.9027174195379
303690,-0.34388592839241,55.6857024899897
303800,-0.34305727481842,55.7291042271082
303910,-0.34305727481842,55.6857024899897
304020,-0.343264430761337,55.5988990157528
304120,-0.344300240278244,55.425285823323
304230,-0.344300240278244,55.3818840862046
304340,-0.343678742647171,55.3384823490861
304450,-0.344093084335327,55.425285823323
304560,-0.343471586704254,55.3384823490861
304670,-0.343678742647171,55.2950806119676
304780,-0.343264430761337,55.2950806119676
304890,-0.34388592839241,55.2950806119676
305000,-0.344093084335327,55.1648691566564
305110,-0.344093084335327,55.1214674195379
305220,-0.343471586704254,55.2950806119676
305330,-0.344507396221161,55.1214674195379
305430,-0.342850118875504,55.2950743680118
305540,-0.344300240278244,55.0346577013451
305650,-0.343678742647171,54.8176490157528
305760,-0.343678742647171,54.6874438043973
305870,-0.34243580698967,54.8176490157528
305980,-0.342642962932587,54.9478542271082
306090,-0.344507396221161,54.8610507528712
306200,-0.344300240278244,55.0346577013451
306310,-0.34388592839241,54.9478479831523
306420,-0.34388592839241,55.0346514573893
306530,-0.344300240278244,54.9478479831523
306640,-0.34388592839241,54.9478479831523
306750,-0.344507396221161,54.6440295793672
306850,-0.343471586704254,54.6440295793672
306960,-0.343678742647171,54.8610445089154
307070,-0.343678742647171,55.121461175582
307180,-0.34305727481842,55.4252795793672
307290,-0.343264430761337,55.6422945089154
307400,-0.34388592839241,55.5988865278411
307510,-0.342850118875504,55.7724934763149
307620,-0.34388592839241,55.7290854952406
307730,-0.343471586704254,55.7724872323591
307840,-0.343264430761337,55.6856837581221
307950,-0.34305727481842,55.9026986876703
308060,-0.344093084335327,55.9026986876703
308170,-0.34388592839241,55.7290854952406
308270,-0.343471586704254,55.5120768096483
308380,-0.34388592839241,55.381865354337
308490,-0.343471586704254,55.2082584058631
308600,-0.343678742647171,55.2950681240559
308710,-0.342850118875504,55.7290917391965
308820,-0.343678742647171,55.8159014573893
308930,-0.342228621244431,56.1197198611744
309040,-0.344300240278244,56.1197198611744
309150,-0.34305727481842,56.1197198611744
309260,-0.344300240278244,55.9461066687447
309370,-0.343678742647171,55.8593031945077
309480,-0.344507396221161,55.7290979831523
309580,-0.344093084335327,55.5988865278411
309690,-0.34305727481842,55.8159014573893
309800,-0.343678742647171,55.7290979831523
309910,-0.342642962932587,55.6856962460338
310020,-0.345128864049912,55.5554910346784
310130,-0.343678742647171,55.51208929756
310240,-0.343471586704254,55.51208929756
310350,-0.344714552164078,55.51208929756
310460,-0.343471586704254,55.5554910346784
310570,-0.343471586704254,55.51208929756
310680,-0.344093084335327,55.4686875604415
310790,-0.342642962932587,55.5988927717969
310900,-0.343471586704254,55.7725059642266
311000,-0.343471586704254,55.9895208937748
311110,-0.34388592839241,56.0329226308933
311220,-0.342642962932587,56.1631278422487
311330,-0.342228621244431,56.4235445089154
311440,-0.343471586704254,56.3801427717969
311550,-0.34305727481842,56.4669462460338
311660,-0.34305727481842,56.5971514573893
311770,-0.342850118875504,56.5971514573893
311880,-0.345128864049912,56.4235445089154
311990,-0.344093084335327,56.2933330536041
312100,-0.344507396221161,56.2499313164856
312210,-0.343678742647171,56.3367410346784
312310,-0.344300240278244,56.1631278422487
312420,-0.343264430761337,56.0329226308933
312530,-0.343264430761337,56.0329226308933
312640,-0.342850118875504,56.1197261051302
312750,-0.343471586704254,56.1197261051302
312860,-0.343678742647171,56.1631340862046
312970,-0.343678742647171,56.2499438043973
313080,-0.344300240278244,56.1631403301604
313190,-0.344093084335327,56.0763306119676
313300,-0.344093084335327,55.8593156824194
313410,-0.343471586704254,56.1631340862046
313520,-0.34305727481842,55.9895208937748
313630,-0.343264430761337,56.3367410346784
313730,-0.344093084335327,56.3801427717969
313840,-0.343264430761337,56.3801427717969
313950,-0.34388592839241,56.3801427717969
314060,-0.344093084335327,56.1197261051302
314170,-0.342642962932587,56.3367347907226
314280,-0.344093084335327,56.0329163869375
314390,-0.343264430761337,56.1197198611744
314500,-0.343678742647171,56.0329163869375
314610,-0.343471586704254,56.0329163869375
314720,-0.344093084335327,55.7724997202708
314830,-0.343471586704254,55.6422945089154
314940,-0.343471586704254,55.6422945089154
315040,-0.342850118875504,55.8159014573893
315150,-0.342850118875504,56.0763181240559
315260,-0.343471586704254,56.0763181240559
315370,-0.34388592839241,56.1631215982929
315480,-0.34305727481842,56.3801365278411
315590,-0.34305727481842,56.3367347907226
315700,-0.343471586704254,56.1197261051302
315810,-0.342850118875504,56.5103479831523
315920,-0.343471586704254,56.7273629127005
316030,-0.34305727481842,57.0311813164856
316140,-0.343264430761337,57.2915979831523
316250,-0.34388592839241,57.2047882649595
316360,-0.342228621244431,57.4218031945077
316460,-0.345128864049912,57.0745830536041
316570,-0.34305727481842,57.3349997202708
316680,-0.34388592839241,57.3784014573893
316790,-0.34305727481842,57.7256215982929
316900,-0.342642962932587,58.1596452134334
317010,-0.34388592839241,58.0728354952406
317120,-0.344093084335327,57.9426240399293
317230,-0.343678742647171,58.0294337581221
317340,-0.343678742647171,58.0728417391965
317450,-0.344093084335327,58.029440002078
317560,-0.344093084335327,57.7690233354113
317670,-0.34388592839241,57.7690233354113
317770,-0.344093084335327,57.5520084058631
317880,-0.34388592839241,57.3783952134334
317990,-0.34243580698967,57.5520021619073
318100,-0.34305727481842,57.8124188285739
318210,-0.344300240278244,57.8124188285739
318320,-0.343471586704254,57.8558205656924
318430,-0.344093084335327,57.8558205656924
318540,-0.343471586704254,57.8558205656924
318650,-0.34305727481842,57.9860257770478
318760,-0.343471586704254,57.9426240399293
318870,-0.342850118875504,58.1596389694775
318980,-0.343264430761337,58.3332521619073
319090,-0.344300240278244,58.2898504247888
319190,-0.343678742647171,58.2464486876703
319300,-0.34388592839241,58.3766538990257
319410,-0.343471586704254,58.2464486876703
319520,-0.344093084335327,58.2898504247888
319630,-0.343264430761337,58.3766538990257
319740,-0.344300240278244,58.2464424437145
319850,-0.343678742647171,57.9860320210037
319960,-0.343471586704254,57.8124250725298
320070,-0.34305727481842,58.1162434763149
320180,-0.344507396221161,58.0728417391965
320290,-0.343471586704254,58.1596514573893
320400,-0.344093084335327,58.1162497202708
320500,-0.343471586704254,58.2898629127005
320610,-0.344093084335327,58.246461175582
320720,-0.343264430761337,58.5068778422487
320830,-0.343678742647171,58.4634761051302
320940,-0.342850118875504,58.6370830536041
321050,-0.343264430761337,58.7238865278411
321160,-0.343471586704254,58.6370830536041
321270,-0.344093084335327,58.4634698611744
321380,-0.342850118875504,58.6804847907226
321490,-0.343678742647171,58.5068778422487
321600,-0.343471586704254,58.5936875604415
321710,-0.343678742647171,58.550285823323
321820,-0.342850118875504,58.63708929756
321920,-0.34305727481842,58.63708929756
322030,-0.343471586704254,58.7673007528712
322140,-0.344093084335327,58.7238990157528
322250,-0.34305727481842,58.8107024899897
322360,-0.343471586704254,58.8975122081825
322470,-0.34305727481842,58.9843156824194
322580,-0.344300240278244,58.8541042271082
322690,-0.344300240278244,58.550285823323
322800,-0.342642962932587,58.7672945089154
322910,-0.343678742647171,58.4634761051302
323020,-0.343678742647171,58.5936875604415
323130,-0.344300240278244,58.3332708937748
323230,-0.343471586704254,58.5068840862046
323340,-0.344507396221161,58.3332708937748
323450,-0.344093084335327,58.4200743680118
323560,-0.344714552164078,58.2898691566564
323670,-0.343471586704254,58.2030656824194
323780,-0.343471586704254,58.2464674195379
323890,-0.343471586704254,58.072860471064
324000,-0.343471586704254,58.4200806119676
324110,-0.34243580698967,58.6804910346784
324220,-0.343471586704254,58.6804910346784
324330,-0.344093084335327,58.8106962460338
324440,-0.34305727481842,58.8974997202708
324550,-0.34243580698967,59.1145084058631
324650,-0.34388592839241,59.1579101429816
324760,-0.344714552164078,58.7238865278411
324870,-0.343471586704254,58.7238865278411
324980,-0.344921708106995,58.4200681240559
325090,-0.343264430761337,58.5502795793672
325200,-0.343264430761337,58.4200743680118
325310,-0.34388592839241,58.0728479831523
325420,-0.344300240278244,57.8992347907226
325530,-0.344921708106995,57.5086129127005
325640,-0.342850118875504,57.552014649819
325750,-0.343264430761337,57.465211175582
325860,-0.342021465301514,58.1162497202708
325960,-0.342642962932587,58.4200681240559
326070,-0.344921708106995,58.333264649819
326180,-0.343471586704254,58.3766663869375
326290,-0.34243580698967,58.7672882649595
326400,-0.34305727481842,58.810690002078
326510,-0.342850118875504,58.8974934763149
326620,-0.34305727481842,58.8540917391965
326730,-0.342850118875504,58.9842969505519
326840,-0.343471586704254,59.0276986876703
326950,-0.343471586704254,59.0711004247888
327060,-0.345128864049912,58.8974934763149
327170,-0.34388592839241,58.9408952134334
327280,-0.343264430761337,59.1145084058631
327380,-0.342850118875504,59.2447136172185
327490,-0.343678742647171,59.1145084058631
327600,-0.344300240278244,58.8974934763149
327710,-0.34305727481842,59.1145084058631
327820,-0.343678742647171,59.0277049316262
327930,-0.34305727481842,59.2013181240559
328040,-0.344507396221161,59.114514649819
328150,-0.343471586704254,58.9409077013451
328260,-0.34388592839241,58.9843094384636
328370,-0.342228621244431,59.2013243680118
328480,-0.343264430761337,59.2881278422487
328590,-0.34305727481842,59.3749313164856
328690,-0.344300240278244,59.3315295793672
328800,-0.343264430761337,59.3749313164856
328910,-0.342850118875504,59.5051365278411
329020,-0.343471586704254,59.3749313164856
329130,-0.343678742647171,59.2013243680118
329240,-0.343471586704254,59.2013243680118
329350,-0.342642962932587,59.4617410346784
329460,-0.343264430761337,59.41833929756
329570,-0.343678742647171,59.2881340862046
329680,-0.342850118875504,59.41833929756
329790,-0.343264430761337,59.331535823323
329900,-0.343264430761337,59.3749375604415
330010,-0.342850118875504,59.41833929756
330110,-0.343264430761337,59.41833929756
330220,-0.343471586704254,59.5051490157528
330330,-0.343471586704254,59.2447323490861
330440,-0.345128864049912,59.2447323490861
330550,-0.344093084335327,59.0277174195379
330660,-0.342021465301514,59.4183455415158
330770,-0.343678742647171,59.2881403301604
330880,-0.343678742647171,59.0711316445681
330990,-0.343678742647171,59.1145396256424
331100,-0.345336049795151,58.8541229589757
331210,-0.34243580698967,59.1145333816865
331320,-0.342642962932587,59.3315420672789
331420,-0.344093084335327,59.3315420672789
331530,-0.343264430761337,59.5051552597086
331640,-0.34388592839241,59.5051552597086
331750,-0.343678742647171,59.5919649779014
331860,-0.344093084335327,59.5485632407829
331970,-0.343678742647171,59.2881528180721
332080,-0.344507396221161,58.984334414287
332190,-0.344507396221161,58.9409326771685
332300,-0.344093084335327,58.8107212218572
332410,-0.344507396221161,58.7239177476203
332520,-0.342228621244431,58.984334414287
332630,-0.343471586704254,58.89753094005
332740,-0.344507396221161,58.6805160105018
332840,-0.34388592839241,58.4635010809536
332950,-0.343264430761337,58.4635010809536
333060,-0.342021465301514,58.9409326771685
333170,-0.344300240278244,58.8107212218572
333280,-0.343471586704254,58.89753094005
333390,-0.343678742647171,58.8541292029316
333500,-0.343678742647171,58.9409389211244
333610,-0.34305727481842,58.9843406582428
333720,-0.34305727481842,59.2447573249095
333830,-0.344093084335327,59.1579476067167
333940,-0.344300240278244,58.984334414287
334050,-0.34305727481842,58.984334414287
334150,-0.343264430761337,59.2447510809536
334260,-0.343678742647171,59.2013493438352
334370,-0.343471586704254,59.3315607991464
334480,-0.344093084335327,59.2013493438352
334590,-0.342850118875504,59.4617660105018
334700,-0.343678742647171,59.3749625362649
334810,-0.344921708106995,59.1145458695982
334920,-0.342850118875504,59.1145458695982
335030,-0.343678742647171,59.0277423953613
335140,-0.342642962932587,59.2013493438352
335250,-0.34305727481842,59.4183642733834
335360,-0.343471586704254,59.288159062028
335470,-0.344714552164078,59.0711441324798
335570,-0.343471586704254,59.0711441324798
335680,-0.34305727481842,59.2013493438352
335790,-0.343471586704254,59.0711441324798
335900,-0.343678742647171,58.9409389211244
336010,-0.344093084335327,58.8107274658131
336120,-0.34388592839241,58.8541292029316
336230,-0.343471586704254,58.7673257286946
336340,-0.34305727481842,58.8541292029316
336450,-0.343264430761337,58.8107274658131
336560,-0.343678742647171,58.9409389211244
336670,-0.344507396221161,58.8975371840059
336780,-0.343678742647171,58.6805284984135
336880,-0.342850118875504,58.8541354468874
336990,-0.343678742647171,58.8541354468874
337100,-0.34388592839241,58.9409389211244
337210,-0.343264430761337,58.9843406582428
337320,-0.342850118875504,59.3315607991464
337430,-0.34305727481842,59.5485757286946
337540,-0.342850118875504,59.9391976067167
337650,-0.343264430761337,59.9825993438352
337760,-0.342642962932587,60.156206292309
337870,-0.34388592839241,60.0693965741163
337980,-0.343471586704254,60.0693965741163
338090,-0.342850118875504,59.9825930998793
338200,-0.343678742647171,59.9391913627608
338300,-0.34388592839241,59.9825930998793
338410,-0.34305727481842,59.9825930998793
338520,-0.34388592839241,59.6787746960942
338630,-0.343471586704254,59.765584414287
338740,-0.343471586704254,60.0260010809536
338850,-0.344300240278244,59.8523878885239
338960,-0.343264430761337,60.1996080294275
339070,-0.34388592839241,60.0693965741163
339180,-0.342850118875504,60.1562000483532
339290,-0.344714552164078,59.9825930998793
339400,-0.344093084335327,60.0259948369978
339510,-0.344093084335327,60.1996017854717
339610,-0.343264430761337,60.1127983112347
339720,-0.34305727481842,60.1562000483532
339830,-0.344507396221161,59.6353667150199
339940,-0.343678742647171,59.4183580294275
340050,-0.343471586704254,59.7221764332126
340160,-0.343471586704254,59.7221764332126
340270,-0.344921708106995,59.2013493438352
340380,-0.343678742647171,59.0711441324798
340490,-0.34388592839241,58.8541292029316
340600,-0.343678742647171,58.7239239915762
340710,-0.343678742647171,58.5503170431023
340820,-0.344507396221161,58.3333021135541
340930,-0.34305727481842,58.420105587791
341030,-0.342850118875504,58.89753094005
341140,-0.344507396221161,58.7673257286946
341250,-0.342850118875504,58.8541292029316
341360,-0.342642962932587,58.89753094005
341470,-0.342850118875504,59.0711378885239
341580,-0.344507396221161,59.0277361514054
341690,-0.344093084335327,58.8107212218572
341800,-0.34388592839241,58.7673132407829
341910,-0.344093084335327,58.5502983112347
342020,-0.342228621244431,59.0277299074496
342130,-0.343471586704254,59.0277299074496
342240,-0.343264430761337,59.1579413627608
342340,-0.34388592839241,58.8107149779014
342450,-0.34243580698967,58.9843219263753
342560,-0.342228621244431,59.157935118805
342670,-0.344093084335327,59.2013368559235
342780,-0.343471586704254,59.157935118805
342890,-0.343264430761337,59.0711316445681
343000,-0.344300240278244,58.8975184521383
343110,-0.342021465301514,59.2447385930419
343220,-0.344300240278244,59.0711254006122
343330,-0.34388592839241,58.8107087339455
343440,-0.342642962932587,58.9409139453009
343550,-0.343678742647171,58.9409139453009
343660,-0.343264430761337,58.854110471064
343760,-0.344093084335327,58.6804972786343
343870,-0.343678742647171,58.5936938043973
343980,-0.344507396221161,58.2464736634937
344090,-0.342642962932587,58.3766788748491
344200,-0.344093084335327,58.2464674195379
344310,-0.344714552164078,57.9860507528712
344420,-0.343264430761337,58.3766726308933
344530,-0.343264430761337,58.550285823323
344640,-0.34243580698967,58.4634761051302
344750,-0.344507396221161,58.2898629127005
