time,raw,transformed
7260,-0.343471586704254,0
7370,-0.342850118875504,0
7480,-0.344921708106995,0
7590,-0.34305727481842,0
7700,-0.343678742647171,0
7810,-0.344714552164078,0
7920,-0.343471586704254,0
8030,-0.343471586704254,0
8130,-0.34305727481842,0
8240,-0.34305727481842,0
8350,-0.343264430761337,0
8460,-0.344714552164078,64.5835206531317
8570,-0.343678742647171,64.4233017068352
8680,-0.344921708106995,63.4921903544031
8790,-0.344093084335327,62.2222932651335
8900,-0.344507396221161,59.7222666240409
9010,-0.34243580698967,48.0394154952577
9120,-0.343264430761337,49.0742849835565
9230,-0.34243580698967,51.7545857738954
9340,-0.344507396221161,50.0001798280848
9450,-0.343471586704254,50.3970204484505
9550,-0.344507396221161,48.8638134670536
9660,-0.343678742647171,48.91323894357
9770,-0.342850118875504,50.347417868517
9880,-0.344093084335327,49.6668385023913
9990,-0.342850118875504,50.9617113731577
10100,-0.344300240278244,50.0001554069854
10210,-0.344093084335327,49.4048974894277
10320,-0.344093084335327,48.8506918420481
10430,-0.34388592839241,48.6112076854524
10540,-0.342850118875504,49.731282700191
10650,-0.343678742647171,49.7396988479014
10760,-0.344093084335327,49.2425241469148
10860,-0.34305727481842,50.0001057812265
10970,-0.344093084335327,49.523900865059
11080,-0.343471586704254,49.7686211981346
11190,-0.344714552164078,48.6487458530184
11300,-0.344714552164078,47.5878113155395
11410,-0.34305727481842,48.290695633436
11520,-0.343471586704254,48.5417740639953
11630,-0.343264430761337,48.983854362059
11740,-0.344093084335327,48.6112133942801
11850,-0.343471586704254,48.8373208236174
11960,-0.34388592839241,48.6743400581763
12070,-0.343264430761337,49.0741784187654
12180,-0.343471586704254,49.2754752543514
12280,-0.344093084335327,48.9362722428856
12390,-0.34305727481842,49.4792728151894
12500,-0.343264430761337,49.8300441104833
12610,-0.343264430761337,50.1667845539654
12720,-0.344507396221161,49.5099155795304
12830,-0.344093084335327,49.19881977445
12940,-0.343471586704254,49.3711785118329
13050,-0.343264430761337,49.6914727298471
13160,-0.34305727481842,50.1516332204601
13270,-0.343264430761337,50.446551668033
13380,-0.343264430761337,50.731122099905
13490,-0.343471586704254,50.8622033198323
13590,-0.344093084335327,50.5650970553504
13700,-0.344300240278244,50.1390071092027
13810,-0.342850118875504,50.6831796671239
13920,-0.34388592839241,50.5377439812705
14030,-0.345128864049912,53.4799115815897
14140,-0.343471586704254,53.6058330751184
14250,-0.342021465301514,47.2817345409826
14360,-0.343471586704254,47.373424463011
14470,-0.343678742647171,47.3628767934902
14580,-0.345128864049912,46.6663638994689
14690,-0.344093084335327,46.4731223059867
14800,-0.342850118875504,46.8568332125357
14910,-0.344300240278244,46.5724574653074
15010,-0.34388592839241,46.4811626774416
15120,-0.343678742647171,46.483704703849
15230,-0.343471586704254,46.5762663888625
15340,-0.34388592839241,46.4885726068653
15450,-0.343678742647171,46.4909167910517
15560,-0.342850118875504,46.8395137907063
15670,-0.34388592839241,46.7518178797875
15780,-0.344300240278244,46.4975689845918
15890,-0.342642962932587,46.9163421792123
16000,-0.344093084335327,46.7486428183478
16110,-0.343471586704254,46.8289431424536
16220,-0.34243580698967,47.3089072412689
16320,-0.34243580698967,47.777443623444
16430,-0.344093084335327,47.6075053919823
16540,-0.343471586704254,47.6740840431804
16650,-0.344300240278244,47.4326135962391
16760,-0.343264430761337,47.5754226256551
16870,-0.344300240278244,47.3404870361457
16980,-0.344300240278244,47.1107722375148
17090,-0.343264430761337,47.2524099951754
17200,-0.34305727481842,47.4634310493002
17310,-0.34305727481842,47.669914016238
17420,-0.342850118875504,47.9429243539865
17530,-0.34305727481842,48.1400130131506
17640,-0.343678742647171,48.1246663213998
17740,-0.343264430761337,48.2470904643212
17850,-0.343678742647171,48.2309643433082
17960,-0.343471586704254,48.2825027781728
18070,-0.343471586704254,48.3330104443408
18180,-0.342850118875504,48.5805339623599
18290,-0.345336049795151,48.0388865914946
18400,-0.34388592839241,47.9608316997217
18510,-0.344300240278244,47.7560751945257
18620,-0.343678742647171,47.7457004841503
18730,-0.342642962932587,48.049980899907
18840,-0.343471586704254,48.0993574278976
18950,-0.342850118875504,48.3330012087921
19050,-0.34305727481842,48.5011970415049
19160,-0.34305727481842,48.6663347681699
19270,-0.343264430761337,48.7684381322829
19380,-0.344300240278244,48.5710963200246
19490,-0.342642962932587,48.8492231185573
19600,-0.344093084335327,48.7131132135629
19710,-0.343264430761337,48.811258387226
19820,-0.343678742647171,48.7927710787599
19930,-0.342642962932587,49.0594946127384
20040,-0.344300240278244,48.8697205495743
20150,-0.344093084335327,48.7391573008299
20260,-0.342850118875504,48.9441050380281
20370,-0.342850118875504,49.14566520932
20470,-0.342228621244431,49.5078602585075
20580,-0.343471586704254,49.5389611457955
20690,-0.343678742647171,49.5157979962729
20800,-0.34388592839241,49.4396654742144
20910,-0.344300240278244,49.2589233288598
21020,-0.34388592839241,49.1860123793337
21130,-0.344093084335327,49.0621583290974
21240,-0.342642962932587,49.2704876662798
21350,-0.342850118875504,49.2704876662798
21460,-0.343678742647171,49.5829891648364
21570,-0.343264430761337,49.5309068305408
21680,-0.343264430761337,49.635071499132
21780,-0.345128864049912,49.5309068305408
21890,-0.344300240278244,49.3225700005754
22000,-0.344300240278244,49.1142331706101
22110,-0.343264430761337,49.0621508363145
22220,-0.343264430761337,49.0100685020189
22330,-0.344507396221161,48.6975670034623
22440,-0.343678742647171,48.9579861677232
22550,-0.34305727481842,49.1142331706101
22660,-0.343471586704254,49.4788170034623
22770,-0.34388592839241,49.5308993377579
22880,-0.34388592839241,49.6871463406447
22990,-0.344093084335327,49.2704801734969
23100,-0.345128864049912,48.8017316720535
23200,-0.343678742647171,48.4892376662798
23310,-0.344300240278244,48.5413200005754
23420,-0.344093084335327,48.3850655049057
23530,-0.34388592839241,48.5413125077925
23640,-0.343678742647171,48.5413125077925
23750,-0.344093084335327,48.2288110092359
23860,-0.343471586704254,48.3850655049057
23970,-0.34388592839241,48.1246463406447
24080,-0.345128864049912,47.9163170034623
24190,-0.344507396221161,47.8121523348711
24300,-0.344921708106995,47.6038229976886
24410,-0.344507396221161,47.4475759948018
24510,-0.34305727481842,47.3954936605062
24620,-0.343471586704254,47.4475759948018
24730,-0.344507396221161,47.3434113262106
24840,-0.34305727481842,47.3434113262106
24950,-0.343678742647171,47.4475834875848
25060,-0.34388592839241,47.3434113262106
25170,-0.344300240278244,47.4475759948018
25280,-0.344093084335327,47.6038229976886
25390,-0.343471586704254,47.4996583290974
25500,-0.34243580698967,47.7600700005754
25610,-0.34243580698967,47.9683993377579
25720,-0.34305727481842,48.2288185020189
25830,-0.342850118875504,48.3850655049057
25930,-0.343264430761337,48.5413200005754
26040,-0.34305727481842,48.5934023348711
26150,-0.343678742647171,48.5413200005754
26260,-0.343471586704254,48.6975744962452
26370,-0.34305727481842,48.6975744962452
26480,-0.345750361680985,48.072571499132
26590,-0.344093084335327,47.8642346691667
26700,-0.343264430761337,48.1767361677232
26810,-0.344093084335327,48.1767361677232
26920,-0.342850118875504,48.3329831706101
27030,-0.344507396221161,48.0204816720535
27140,-0.343678742647171,47.8642346691667
27240,-0.342850118875504,47.9683993377579
27350,-0.34388592839241,47.8121448420881
27460,-0.344921708106995,47.4475610092359
27570,-0.343471586704254,47.6038155049057
27680,-0.343678742647171,47.7600700005754
27790,-0.344300240278244,47.3954861677232
27900,-0.344300240278244,47.291321499132
28010,-0.34388592839241,47.6038155049057
28120,-0.343264430761337,47.6558978392013
28230,-0.344921708106995,46.9267301734969
28340,-0.34305727481842,47.0308948420881
28450,-0.344507396221161,46.8225580121227
28560,-0.34388592839241,47.1350520178964
28660,-0.343471586704254,47.2913065135661
28770,-0.343678742647171,47.0829771763837
28880,-0.34243580698967,47.5517256778271
28990,-0.343471586704254,47.6558978392013
29100,-0.34243580698967,47.9683918449749
29210,-0.343471586704254,47.9683918449749
29320,-0.344300240278244,47.8642271763837
29430,-0.34243580698967,48.1767211821573
29540,-0.342642962932587,48.2288035164529
29650,-0.34388592839241,48.2288035164529
29760,-0.344300240278244,48.2288035164529
29870,-0.344300240278244,47.8121373493052
29970,-0.342850118875504,48.1246388478617
30080,-0.344507396221161,47.8642196836008
30190,-0.344300240278244,47.3954711821573
30300,-0.344093084335327,46.9788050150095
30410,-0.34388592839241,47.0308873493052
30520,-0.343264430761337,47.0829696836008
30630,-0.344300240278244,47.0829696836008
30740,-0.344300240278244,46.8225505193398
30850,-0.34305727481842,47.1350520178964
30960,-0.342642962932587,47.5517181850442
31070,-0.34305727481842,47.6038005193398
31180,-0.344300240278244,47.2912990207832
31290,-0.343264430761337,47.2392166864876
31390,-0.344093084335327,46.926715187931
31500,-0.34243580698967,47.0829621908178
31610,-0.34243580698967,47.3954561965914
31720,-0.344093084335327,47.1871193666261
31830,-0.344921708106995,46.8746178680695
31940,-0.343264430761337,46.9267002023651
32050,-0.343264430761337,46.9787825366607
32160,-0.342850118875504,46.9787825366607
32270,-0.34388592839241,47.3433663695129
32380,-0.344507396221161,47.1871193666261
32490,-0.343264430761337,47.4475385308871
32600,-0.342642962932587,47.7079502023651
32710,-0.34305727481842,47.6037855337739
32810,-0.344507396221161,47.3433663695129
32920,-0.345543205738068,46.6662810381041
33030,-0.343264430761337,46.6141987038085
33140,-0.342642962932587,46.7183633723997
33250,-0.343471586704254,46.6662810381041
33360,-0.343678742647171,46.8225355337739
33470,-0.344921708106995,46.2496223637392
33580,-0.34305727481842,46.5100415280002
33690,-0.343678742647171,46.405876859409
33800,-0.343471586704254,46.4579591937046
33910,-0.34388592839241,46.145457695148
34020,-0.344093084335327,46.1975400294436
34120,-0.345128864049912,45.9371283579656
34230,-0.342228621244431,46.0933828536354
34340,-0.344093084335327,45.7808813550788
34450,-0.34305727481842,45.5725445251134
34560,-0.343471586704254,45.5725445251134
34670,-0.344507396221161,45.364207695148
34780,-0.344507396221161,45.2079606922612
34890,-0.344921708106995,45.0517136893744
35000,-0.343264430761337,45.2079681850442
35110,-0.343678742647171,45.3121403464183
35220,-0.342642962932587,45.3121403464183
35330,-0.344093084335327,44.9996388478617
35440,-0.344093084335327,44.8954666864876
35540,-0.344093084335327,44.6871298565222
35650,-0.344300240278244,44.4267106922612
35760,-0.344714552164078,44.5308753608524
35870,-0.343471586704254,44.7392121908178
35980,-0.343678742647171,44.8954666864876
36090,-0.343471586704254,44.843384352192
36200,-0.343471586704254,44.7913020178964
36310,-0.344300240278244,44.843384352192
36420,-0.342850118875504,45.0517136893744
36530,-0.345128864049912,44.5308828536354
36640,-0.343678742647171,44.4788005193398
36750,-0.34305727481842,44.6871373493052
36850,-0.342850118875504,44.9475565135661
36960,-0.343678742647171,45.0517286749403
37070,-0.343471586704254,45.4683948420881
37180,-0.343471586704254,45.5204771763837
37290,-0.344093084335327,45.5725595106793
37400,-0.34243580698967,45.9892256778271
37510,-0.34388592839241,45.9892256778271
37620,-0.34305727481842,46.1454726807139
37730,-0.34305727481842,46.4058918449749
37840,-0.344093084335327,46.2496373493052
37950,-0.344300240278244,46.1454726807139
38060,-0.344093084335327,46.405884352192
38170,-0.343471586704254,46.6663035164529
38270,-0.343678742647171,46.9788050150095
38380,-0.343678742647171,47.1871418449749
38490,-0.343264430761337,47.1350595106793
38600,-0.343678742647171,47.0829771763837
38710,-0.34305727481842,47.4475610092359
38820,-0.34305727481842,47.4475610092359
38930,-0.343678742647171,47.4475610092359
39040,-0.34305727481842,47.6558978392013
39150,-0.34388592839241,47.7600625077925
39260,-0.344507396221161,47.6558978392013
39370,-0.343264430761337,47.7079801734969
39480,-0.343264430761337,47.4996508363145
39580,-0.343264430761337,47.291321499132
39690,-0.344093084335327,47.0309023348711
39800,-0.34305727481842,46.9788200005754
39910,-0.343471586704254,46.9267376662798
40020,-0.344300240278244,46.6142361677232
40130,-0.342228621244431,46.9788200005754
40240,-0.344300240278244,46.7704831706101
40350,-0.343678742647171,46.6142361677232
40460,-0.343678742647171,47.1350744962452
40570,-0.34388592839241,47.1871568305408
40680,-0.342642962932587,47.3434038334276
40790,-0.343471586704254,47.4996583290974
40900,-0.343264430761337,47.3954936605062
41000,-0.344300240278244,47.4475759948018
41110,-0.343471586704254,47.4996583290974
41220,-0.34305727481842,47.4475759948018
41330,-0.344093084335327,47.3954936605062
41440,-0.343471586704254,47.7600774933584
41550,-0.34305727481842,47.8642421619496
41660,-0.344507396221161,47.6559053319842
41770,-0.343678742647171,47.812159827654
41880,-0.344300240278244,47.812159827654
41990,-0.34243580698967,48.1767436605062
42100,-0.343471586704254,48.1246613262106
42210,-0.343264430761337,48.5413274933584
42310,-0.344300240278244,48.2288259948018
42420,-0.34388592839241,48.3850729976886
42530,-0.342850118875504,48.6454921619496
42640,-0.34305727481842,48.7496568305408
42750,-0.343471586704254,48.8017391648364
42860,-0.344507396221161,48.2809083290974
42970,-0.344507396221161,48.0204891648364
43080,-0.344300240278244,47.551740663393
43190,-0.342850118875504,47.7079876662798
43300,-0.34388592839241,47.8121523348711
43410,-0.343678742647171,47.4996583290974
43520,-0.344714552164078,46.9788274933584
43630,-0.34388592839241,46.9788274933584
43730,-0.342850118875504,47.3434113262106
43840,-0.34388592839241,47.4475759948018
43950,-0.343678742647171,47.2392466576194
44060,-0.343264430761337,47.551748156176
44170,-0.344507396221161,47.4996658218804
44280,-0.343264430761337,47.7080026518457
44390,-0.34305727481842,47.9163394818111
44500,-0.344093084335327,47.7080026518457
44610,-0.343678742647171,47.8642571475155
44720,-0.344093084335327,47.9163394818111
44830,-0.343471586704254,47.8121748132199
44940,-0.343264430761337,47.6559278103331
45040,-0.344507396221161,47.2913439774809
45150,-0.343471586704254,47.4996808074463
45260,-0.345128864049912,47.0309323060029
45370,-0.343264430761337,47.2392691359682
45480,-0.344093084335327,46.8226029688204
45590,-0.344714552164078,46.2496897987858
45700,-0.342642962932587,46.614273631638
45810,-0.342850118875504,47.135104467377
45920,-0.344093084335327,46.9267676374116
46030,-0.343678742647171,46.8226029688204
46140,-0.344093084335327,46.5101014702638
46250,-0.342642962932587,46.8226029688204
46360,-0.34243580698967,47.3434338045594
46460,-0.343678742647171,47.2392691359682
46570,-0.343264430761337,47.0830221330814
46680,-0.34388592839241,46.874685303116
46790,-0.344093084335327,46.9788499717073
46900,-0.34388592839241,47.3955161388551
47010,-0.343678742647171,47.2913514702638
47120,-0.344507396221161,46.8226029688204
47230,-0.344714552164078,46.5101014702638
47340,-0.343264430761337,46.6142661388551
47450,-0.342642962932587,47.1871793088897
47560,-0.344300240278244,46.8746778103331
47670,-0.344921708106995,46.5621763117765
47770,-0.345543205738068,46.0413379832545
47880,-0.34305727481842,46.2496748132199
47990,-0.343678742647171,46.3538469745941
48100,-0.34305727481842,46.8746778103331
48210,-0.344093084335327,46.4059218161067
48320,-0.34243580698967,46.8225879832545
48430,-0.34305727481842,46.8225879832545
48540,-0.344921708106995,46.4580041504023
48650,-0.342642962932587,46.9267526518457
48760,-0.343471586704254,47.1871718161067
48870,-0.343471586704254,47.5517556489589
48980,-0.343264430761337,47.5517556489589
49090,-0.34305727481842,47.7080026518457
49190,-0.344300240278244,47.2913364846979
49300,-0.34388592839241,47.3434188189935
49410,-0.344507396221161,47.2392541504023
49520,-0.34305727481842,47.4996733146633
49630,-0.343471586704254,47.7080101446287
49740,-0.342850118875504,48.1767586460721
49850,-0.343264430761337,48.2288409803677
49960,-0.344714552164078,47.9684218161067
50070,-0.34388592839241,47.8642496547326
50180,-0.343678742647171,47.812167320437
50290,-0.343678742647171,47.9684218161067
50400,-0.343264430761337,47.8642571475155
50500,-0.344507396221161,48.0205041504023
50610,-0.343471586704254,48.0725864846979
50720,-0.344507396221161,47.7080026518457
50830,-0.343264430761337,47.6038379832545
50940,-0.344714552164078,47.3434188189935
51050,-0.343264430761337,47.3955011532892
51160,-0.343471586704254,47.3955011532892
51270,-0.344093084335327,47.3955011532892
51380,-0.34305727481842,47.2392541504023
51490,-0.344300240278244,47.1350894818111
51600,-0.343264430761337,47.0830071475155
51710,-0.34388592839241,46.8746703175501
51820,-0.342850118875504,47.1871718161067
51920,-0.343678742647171,47.3434263117765
52030,-0.343678742647171,47.4475984731507
52140,-0.343678742647171,47.3955161388551
52250,-0.34305727481842,47.5517631417419
52360,-0.34388592839241,47.4996733146633
52470,-0.342850118875504,47.6038379832545
52580,-0.344093084335327,47.4996658218804
52690,-0.343471586704254,47.3955011532892
52800,-0.34388592839241,47.1871643233238
52910,-0.34388592839241,47.1350744962452
53020,-0.342642962932587,47.2392391648364
53130,-0.344093084335327,47.1871568305408
53230,-0.344300240278244,47.2392391648364
53340,-0.343678742647171,47.1350744962452
53450,-0.34388592839241,46.9788200005754
53560,-0.34305727481842,47.0309023348711
53670,-0.34388592839241,47.0829846691667
53780,-0.343264430761337,47.0309023348711
53890,-0.344093084335327,46.8746478392013
54000,-0.343264430761337,47.1350670034623
54110,-0.343678742647171,46.7704831706101
54220,-0.344507396221161,46.7184008363145
54330,-0.344093084335327,46.6142286749403
54440,-0.34388592839241,46.5621388478617
54550,-0.343678742647171,46.6142286749403
54650,-0.343264430761337,46.4579816720535
54760,-0.34388592839241,46.3538095106793
54870,-0.34388592839241,46.1975550150095
54980,-0.34305727481842,46.5100565135661
55090,-0.343264430761337,46.5621388478617
55200,-0.344300240278244,46.2496373493052
55310,-0.344507396221161,46.1454726807139
55420,-0.343678742647171,46.0933903464183
55530,-0.343678742647171,45.9371433435315
55640,-0.34305727481842,46.3017271763837
55750,-0.343678742647171,46.3017271763837
55860,-0.34305727481842,46.6142286749403
55960,-0.34388592839241,46.2496448420881
56070,-0.34388592839241,46.1454726807139
56180,-0.343264430761337,46.1454726807139
56290,-0.342642962932587,46.5621388478617
56400,-0.342850118875504,46.8225580121227
56510,-0.343264430761337,46.7183933435315
56620,-0.344300240278244,46.4058918449749
56730,-0.343471586704254,46.4058918449749
56840,-0.344300240278244,46.4579741792705
56950,-0.344093084335327,46.5621388478617
57060,-0.343471586704254,46.7704756778271
57170,-0.343678742647171,46.5621463406447
57280,-0.34305727481842,46.7704831706101
57380,-0.343678742647171,46.7704831706101
57490,-0.343678742647171,47.0309023348711
57600,-0.344714552164078,46.8225729976886
57710,-0.34388592839241,46.5621538334276
57820,-0.344093084335327,46.510071499132
57930,-0.342850118875504,46.7184008363145
58040,-0.344300240278244,46.4579816720535
58150,-0.344093084335327,46.5621463406447
58270,-0.343264430761337,46.5621463406447
58370,-0.344093084335327,46.3017271763837
58480,-0.345128864049912,46.0413155049057
58590,-0.343678742647171,46.0413155049057
58690,-0.344093084335327,46.0413155049057
58800,-0.342850118875504,46.1975625077925
58910,-0.343264430761337,46.1975625077925
59020,-0.343678742647171,46.4058993377579
59130,-0.343471586704254,46.4058993377579
59240,-0.343678742647171,46.7704831706101
59350,-0.343264430761337,46.7704831706101
59460,-0.342850118875504,47.0829846691667
59570,-0.34305727481842,47.4996508363145
59680,-0.342850118875504,47.4475685020189
59790,-0.344714552164078,46.9788200005754
59900,-0.343678742647171,47.0829921619496
60010,-0.344714552164078,46.8225729976886
60110,-0.343471586704254,46.9788274933584
60220,-0.34305727481842,46.8746628247672
60330,-0.342228621244431,46.9267526518457
60440,-0.343471586704254,46.9788349861414
60550,-0.342642962932587,47.1350819890282
60660,-0.344300240278244,47.030917320437
60770,-0.34388592839241,47.0829996547326
60880,-0.344714552164078,46.8746703175501
60990,-0.344921708106995,46.5621688189935
61100,-0.342642962932587,47.030917320437
61210,-0.342850118875504,47.4996658218804
61320,-0.34388592839241,47.3434113262106
61420,-0.34388592839241,47.030909827654
61530,-0.343264430761337,47.291328991915
61640,-0.344300240278244,47.4475759948018
61750,-0.343471586704254,47.9684143233238
61860,-0.343471586704254,47.8642496547326
61970,-0.343471586704254,47.9163319890282
62080,-0.344714552164078,47.4996658218804
62190,-0.34388592839241,47.551748156176
62300,-0.342850118875504,47.4475834875848
62410,-0.343264430761337,47.3955011532892
62520,-0.344300240278244,47.551748156176
62630,-0.342642962932587,47.551748156176
62740,-0.343471586704254,47.551748156176
62840,-0.342642962932587,47.7600774933584
62950,-0.34305727481842,47.812159827654
63060,-0.343678742647171,47.6559128247672
63170,-0.343678742647171,47.812167320437
63280,-0.343678742647171,47.8642571475155
63390,-0.344093084335327,47.9684218161067
63500,-0.343471586704254,47.8642571475155
63610,-0.344300240278244,47.6559203175501
63720,-0.34305727481842,47.6038379832545
63830,-0.34388592839241,47.4475834875848
63940,-0.344093084335327,47.6038304904716
64050,-0.343264430761337,47.7600849861414
64150,-0.344093084335327,47.6559128247672
64260,-0.341814309358597,48.1246613262106
64370,-0.344093084335327,47.9163244962452
64480,-0.344507396221161,47.9163244962452
64590,-0.34388592839241,47.8121523348711
64700,-0.343264430761337,48.1246538334276
64810,-0.344093084335327,47.9163170034623
64920,-0.344507396221161,47.9683993377579
65030,-0.34305727481842,48.0204816720535
65140,-0.344921708106995,47.6558978392013
65250,-0.342850118875504,47.9683993377579
65360,-0.344300240278244,47.6558978392013
65470,-0.343678742647171,47.8121523348711
65570,-0.343678742647171,47.7079876662798
65680,-0.343264430761337,47.8642421619496
65790,-0.34243580698967,47.9684068305408
65900,-0.34305727481842,48.1246538334276
66010,-0.342642962932587,48.3850655049057
66120,-0.343678742647171,48.3850655049057
66230,-0.342850118875504,48.4371478392013
66340,-0.345957517623901,47.9163170034623
66450,-0.344921708106995,47.3954861677232
66560,-0.34388592839241,47.4475685020189
66670,-0.343264430761337,47.4996508363145
66780,-0.34305727481842,47.7079876662798
66880,-0.343678742647171,47.7600774933584
66990,-0.344507396221161,47.291328991915
67100,-0.343264430761337,47.4996658218804
67210,-0.344300240278244,47.4996658218804
67320,-0.344093084335327,47.3954936605062
67430,-0.34305727481842,47.6038304904716
67540,-0.343264430761337,47.551748156176
67650,-0.344093084335327,47.4996658218804
67760,-0.344507396221161,47.1871643233238
67870,-0.34388592839241,47.2392466576194
67980,-0.343264430761337,47.2392466576194
68090,-0.343471586704254,47.291328991915
68200,-0.344714552164078,47.2392466576194
68300,-0.344300240278244,47.1871643233238
68410,-0.344921708106995,46.9267526518457
68520,-0.344093084335327,46.8225804904716
68630,-0.343678742647171,46.7184158218804
68740,-0.344921708106995,46.4580041504023
68850,-0.343471586704254,46.5621763117765
68960,-0.343678742647171,46.4059293088897
69070,-0.344093084335327,46.1975924789243
69180,-0.344093084335327,46.2496748132199
69290,-0.343471586704254,46.5100939774809
69400,-0.344300240278244,46.3538394818111
69510,-0.342850118875504,46.5621688189935
69610,-0.344507396221161,46.1975849861414
69720,-0.344300240278244,46.0413304904716
69830,-0.343471586704254,45.9371658218804
69940,-0.342642962932587,46.249667320437
70050,-0.344300240278244,46.1455026518457
70160,-0.343471586704254,46.0934203175501
70270,-0.343678742647171,45.8330086460721
70380,-0.343678742647171,45.6246793088897
70490,-0.344300240278244,45.3642601446287
70600,-0.344714552164078,45.2600954760375
70710,-0.344921708106995,44.8955116431853
70820,-0.34305727481842,45.2080131417419
70930,-0.343678742647171,45.312185303116
71030,-0.343678742647171,45.2601029688204
71140,-0.343678742647171,45.2601029688204
71250,-0.343471586704254,45.1559383002292
71360,-0.344093084335327,45.0517661388551
71470,-0.343678742647171,45.0517661388551
71580,-0.344300240278244,45.1559308074463
71690,-0.343471586704254,45.2601029688204
71800,-0.343471586704254,45.4163574644902
71910,-0.343471586704254,45.2601104616034
72020,-0.344921708106995,45.1038634587166
72130,-0.342850118875504,45.4163649572732
72240,-0.343678742647171,45.3122002886819
72340,-0.34388592839241,45.3642826229775
72450,-0.34388592839241,45.6767766287512
72560,-0.343471586704254,45.7288589630468
72670,-0.343471586704254,45.8851134587166
72780,-0.34388592839241,45.6246942944556
72890,-0.344507396221161,45.312192795899
73000,-0.343678742647171,45.312192795899
73110,-0.343471586704254,45.312192795899
73220,-0.34388592839241,45.2601029688204
73330,-0.343678742647171,45.1559383002292
73440,-0.344093084335327,44.8434368016726
73550,-0.343678742647171,44.6871897987858
73660,-0.343264430761337,44.5830251301946
73760,-0.343471586704254,44.8955266287512
73870,-0.34388592839241,44.8434368016726
73980,-0.343471586704254,45.1559383002292
74090,-0.344300240278244,44.9476014702638
74200,-0.34305727481842,44.9476014702638
74310,-0.344714552164078,44.3225984731507
74420,-0.343471586704254,44.3225984731507
74530,-0.343678742647171,44.0621868016726
74640,-0.342850118875504,44.4267706345248
74750,-0.344093084335327,44.3746883002292
74860,-0.343678742647171,44.6351074644902
74970,-0.34243580698967,45.2601029688204
75070,-0.34388592839241,44.9476014702638
75180,-0.343264430761337,44.8434368016726
75290,-0.342228621244431,45.2601104616034
75400,-0.343471586704254,45.3642826229775
75510,-0.343264430761337,45.3642826229775
75620,-0.343471586704254,45.5726194529429
75730,-0.343678742647171,45.5205371186473
75840,-0.34388592839241,45.4163649572732
75950,-0.34388592839241,45.312192795899
76060,-0.344507396221161,45.3642751301946
76170,-0.34388592839241,45.3642751301946
76280,-0.344093084335327,45.051773631638
76390,-0.342850118875504,45.1559383002292
76490,-0.344507396221161,45.1038559659336
76600,-0.344093084335327,44.7392721330814
76710,-0.343471586704254,44.7392721330814
76820,-0.34388592839241,44.4267706345248
76930,-0.34243580698967,44.5830176374116
77040,-0.343678742647171,44.5830176374116
77150,-0.34388592839241,44.5309278103331
77260,-0.343678742647171,44.5309278103331
77370,-0.344300240278244,44.4788454760375
77480,-0.34305727481842,44.5830101446287
77590,-0.342850118875504,44.9475939774809
77700,-0.343471586704254,44.8434293088897
77800,-0.344921708106995,44.5830176374116
77910,-0.344300240278244,44.530935303116
78020,-0.344093084335327,44.3225984731507
78130,-0.34305727481842,44.5830176374116
78240,-0.34305727481842,44.2705161388551
78350,-0.344714552164078,44.1142691359682
78460,-0.343264430761337,44.4267706345248
78570,-0.34388592839241,44.4267706345248
78680,-0.344093084335327,44.2184338045594
78790,-0.344507396221161,44.1142691359682
78900,-0.34388592839241,44.2705161388551
79010,-0.343678742647171,44.1142691359682
79120,-0.344093084335327,44.3225984731507
79220,-0.342850118875504,44.3225984731507
79330,-0.344300240278244,44.3225984731507
79440,-0.343471586704254,44.3746808074463
79550,-0.34305727481842,44.5309278103331
79660,-0.343471586704254,44.4788454760375
79770,-0.344714552164078,43.9059323060029
79880,-0.344093084335327,43.6455131417419
79990,-0.343471586704254,43.4371838045594
80100,-0.343678742647171,43.4371838045594
80210,-0.342642962932587,43.4892661388551
80320,-0.343471586704254,44.1142691359682
80430,-0.344714552164078,44.1663514702638
80530,-0.343471586704254,44.270523631638
80640,-0.34388592839241,44.1142691359682
80750,-0.344093084335327,43.8538499717073
80860,-0.342850118875504,44.0621793088897
80970,-0.34388592839241,44.2184263117765
81080,-0.34388592839241,44.0621718161067
81190,-0.342850118875504,44.4267556489589
81300,-0.344300240278244,44.3746733146633
81410,-0.344714552164078,43.9580071475155
81520,-0.342850118875504,44.0621718161067
81630,-0.344300240278244,44.0100894818111
81740,-0.343678742647171,44.2184263117765
81850,-0.343471586704254,44.3225984731507
81950,-0.343471586704254,44.2705161388551
82060,-0.34305727481842,44.3746808074463
82170,-0.343471586704254,44.6871823060029
82280,-0.343678742647171,44.8434368016726
82390,-0.342228621244431,45.5205221330814
82500,-0.344507396221161,45.4163574644902
82610,-0.342642962932587,45.6767691359682
82720,-0.343471586704254,46.0413529688204
82830,-0.344093084335327,45.8850984731507
82940,-0.34305727481842,46.0413454760375
83050,-0.343471586704254,46.1975999717073
83160,-0.344507396221161,46.093435303116
83260,-0.344300240278244,45.8850984731507
83370,-0.34305727481842,46.1975999717073
83480,-0.344093084335327,45.8850984731507
83590,-0.343471586704254,46.1455176374116
83700,-0.342642962932587,46.5621838045594
83810,-0.344093084335327,46.4059293088897
83920,-0.344093084335327,46.0413454760375
84030,-0.345336049795151,45.7809263117765
84140,-0.343471586704254,45.7809263117765
84250,-0.34305727481842,45.9371733146633
84360,-0.343678742647171,45.9371733146633
84470,-0.344093084335327,45.9892556489589
84580,-0.343678742647171,46.2496748132199
84680,-0.344507396221161,46.3538394818111
84790,-0.343678742647171,46.1975924789243
84900,-0.344507396221161,45.9892556489589
85010,-0.344507396221161,45.7809188189935
85120,-0.343264430761337,45.8850834875848
85230,-0.343471586704254,45.8850834875848
85340,-0.344300240278244,45.8330011532892
85450,-0.344300240278244,45.6767466576194
85560,-0.343471586704254,45.8850834875848
85670,-0.34388592839241,45.7809113262106
85780,-0.343678742647171,45.728828991915
85890,-0.342642962932587,45.9371583290974
85990,-0.343678742647171,46.249659827654
86100,-0.344921708106995,45.728828991915
86210,-0.34305727481842,45.8850759948018
86320,-0.342850118875504,46.1454951590628
86430,-0.343678742647171,46.1975849861414
86540,-0.343264430761337,46.249667320437
86650,-0.342850118875504,46.4059143233238
86760,-0.343471586704254,46.5100864846979
86870,-0.343471586704254,46.7705056489589
86980,-0.343471586704254,46.8225879832545
87090,-0.343678742647171,46.7705056489589
87200,-0.343471586704254,46.8746778103331
87310,-0.34305727481842,47.0309248132199
87410,-0.343678742647171,47.1350969745941
87520,-0.343471586704254,47.1871793088897
87630,-0.343471586704254,47.1350969745941
87740,-0.34243580698967,47.3955086460721
87850,-0.343678742647171,47.4475984731507
87960,-0.34388592839241,47.3434263117765
88070,-0.34243580698967,47.8121748132199
88180,-0.342642962932587,47.9163394818111
88290,-0.34305727481842,48.3330056489589
88400,-0.34388592839241,48.2288334875848
88510,-0.343264430761337,48.332998156176
88620,-0.344921708106995,47.812167320437
88720,-0.34388592839241,47.8642496547326
88830,-0.343471586704254,47.9163319890282
88940,-0.344714552164078,47.3434188189935
89050,-0.34388592839241,47.3434188189935
89160,-0.343678742647171,47.2392541504023
89270,-0.344714552164078,46.6142511532892
89380,-0.343678742647171,46.5621688189935
89490,-0.345543205738068,45.989248156176
89600,-0.34388592839241,45.8850759948018
89710,-0.34388592839241,45.8329861677232
89820,-0.343678742647171,45.8850759948018
89930,-0.344093084335327,45.8329936605062
90040,-0.344921708106995,45.728828991915
90140,-0.344093084335327,45.6767466576194
90250,-0.344300240278244,45.6246643233238
90360,-0.344093084335327,45.3121628247672
90470,-0.343471586704254,45.5725819890282
90580,-0.344300240278244,45.5204996547326
90690,-0.343678742647171,45.468417320437
90800,-0.34305727481842,45.6767541504023
90910,-0.34243580698967,45.6767541504023
91020,-0.344093084335327,45.5725819890282
91130,-0.344921708106995,45.3121703175501
91240,-0.343471586704254,45.3642526518457
91350,-0.34388592839241,45.468417320437
91450,-0.34305727481842,45.468417320437
91560,-0.343264430761337,45.3642526518457
91670,-0.34388592839241,45.2600804904716
91780,-0.34305727481842,45.728828991915
91890,-0.343264430761337,45.989248156176
92000,-0.34305727481842,46.249667320437
92110,-0.343264430761337,46.1975849861414
92220,-0.34305727481842,46.1975849861414
92330,-0.344714552164078,46.1975849861414
92440,-0.34305727481842,46.249667320437
92550,-0.344093084335327,46.1975849861414
92660,-0.343471586704254,46.3538394818111
92770,-0.344093084335327,46.4580041504023
92870,-0.343471586704254,46.5621763117765
92980,-0.34305727481842,46.7184233146633
93090,-0.344093084335327,46.7184233146633
93200,-0.344507396221161,46.3017571475155
93310,-0.343264430761337,46.5621763117765
93420,-0.342850118875504,46.7184233146633
93530,-0.343471586704254,46.6142586460721
93640,-0.34305727481842,46.7184233146633
93750,-0.344921708106995,46.6663409803677
93860,-0.344300240278244,46.6142586460721
93970,-0.342850118875504,46.7705056489589
94080,-0.342642962932587,47.030917320437
94180,-0.343471586704254,46.8225879832545
94290,-0.342642962932587,47.030917320437
94400,-0.342850118875504,47.4996658218804
94510,-0.343471586704254,47.4996658218804
94620,-0.34388592839241,47.4996658218804
94730,-0.343678742647171,47.6038379832545
94840,-0.343264430761337,47.4996733146633
94950,-0.342642962932587,47.8121748132199
95060,-0.344300240278244,47.7080101446287
95170,-0.342850118875504,47.7080101446287
95280,-0.343471586704254,47.9163469745941
95390,-0.34388592839241,48.1246763117765
95500,-0.343471586704254,47.9684293088897
95600,-0.34388592839241,48.0725939774809
95710,-0.342228621244431,48.4371778103331
95820,-0.34388592839241,48.3330056489589
95930,-0.343678742647171,48.2809233146633
96040,-0.344300240278244,47.9684218161067
96150,-0.343264430761337,48.0205041504023
96260,-0.34388592839241,47.9684143233238
96370,-0.34305727481842,47.7600774933584
96480,-0.34305727481842,48.1246613262106
96590,-0.34305727481842,48.0204966576194
96700,-0.345128864049912,47.6038304904716
96810,-0.344300240278244,47.551748156176
96910,-0.344507396221161,47.1871643233238
97020,-0.343678742647171,47.1350819890282
97130,-0.344300240278244,47.1871643233238
97240,-0.34305727481842,47.4996658218804
97350,-0.342642962932587,47.6038304904716
97460,-0.342850118875504,47.9163319890282
97570,-0.34388592839241,47.812159827654
97680,-0.343471586704254,47.6038304904716
97790,-0.344507396221161,47.4996658218804
97900,-0.342850118875504,47.812167320437
98010,-0.34388592839241,48.1767511532892
98120,-0.34388592839241,48.072578991915
98230,-0.34305727481842,48.072578991915
98330,-0.343264430761337,48.1767436605062
98440,-0.342228621244431,48.6454996547326
98550,-0.342228621244431,49.0100834875848
98660,-0.343678742647171,49.2184203175501
98770,-0.34388592839241,49.1663304904716
98880,-0.343678742647171,49.374667320437
98990,-0.34388592839241,49.5309143233238
99100,-0.34305727481842,49.5829966576194
99210,-0.342850118875504,49.7392436605062
99320,-0.344093084335327,49.7913259948018
99430,-0.343264430761337,50.0517451590628
99540,-0.344093084335327,49.895490663393
99640,-0.343678742647171,49.9475804904716
99750,-0.343678742647171,49.9475804904716
99860,-0.344093084335327,49.5829966576194
99970,-0.343471586704254,49.635078991915
100080,-0.343264430761337,50.0517451590628
100190,-0.343678742647171,49.895498156176
100300,-0.342642962932587,49.9475804904716
100410,-0.344300240278244,49.7913259948018
100520,-0.34305727481842,49.8434083290974
100630,-0.343678742647171,49.635078991915
100740,-0.34305727481842,49.7392436605062
100850,-0.343264430761337,49.7913259948018
100960,-0.34388592839241,49.6871538334276
101060,-0.34305727481842,49.8434008363145
101170,-0.343678742647171,49.7913185020189
101280,-0.343678742647171,49.635071499132
101390,-0.34243580698967,49.9475655049057
101500,-0.34388592839241,49.8433933435315
101610,-0.34388592839241,49.7392211821573
101720,-0.343678742647171,49.4267271763837
101830,-0.342642962932587,49.6871388478617
101940,-0.344507396221161,49.5308918449749
102050,-0.343264430761337,49.3225625077925
102160,-0.343471586704254,49.1142331706101
102270,-0.344300240278244,48.8017316720535
102370,-0.344093084335327,48.7496493377579
102480,-0.34243580698967,48.9579786749403
102590,-0.34388592839241,49.2183903464183
102700,-0.342642962932587,49.5308918449749
102810,-0.34305727481842,49.6350565135661
102920,-0.344300240278244,49.7392211821573
103030,-0.343264430761337,49.8954756778271
103140,-0.343678742647171,49.8954756778271
103250,-0.343678742647171,50.1558948420881
103360,-0.342228621244431,50.5204786749403
103470,-0.34305727481842,51.1454816720535
103580,-0.34388592839241,51.1454816720535
103690,-0.34388592839241,51.1454816720535
103790,-0.344507396221161,50.9371448420881
103900,-0.344300240278244,50.8850625077925
104010,-0.34388592839241,51.1454741792705
104120,-0.343471586704254,51.3017286749403
104230,-0.342850118875504,51.6663125077925
104340,-0.342850118875504,51.9788140063491
104450,-0.343678742647171,51.9267316720535
104560,-0.344300240278244,51.9267316720535
104670,-0.344300240278244,51.7704771763837
104780,-0.34305727481842,51.7704771763837
104890,-0.34305727481842,51.6142301734969
105000,-0.343678742647171,51.7184023348711
105100,-0.344921708106995,51.7184023348711
105210,-0.344093084335327,51.5621478392013
105320,-0.342642962932587,51.8746493377579
105430,-0.345128864049912,51.3538185020189
105540,-0.343264430761337,51.3538185020189
105650,-0.344300240278244,51.2496538334276
105760,-0.344300240278244,50.9371523348711
105870,-0.342850118875504,51.0413170034623
105980,-0.343471586704254,50.9371523348711
106090,-0.343264430761337,50.9371523348711
106200,-0.344093084335327,50.6767331706101
106310,-0.343264430761337,51.0413170034623
106420,-0.344507396221161,50.6767331706101
106520,-0.34388592839241,50.7288155049057
106630,-0.341814309358597,51.1454816720535
106740,-0.344300240278244,51.0933993377579
106850,-0.343678742647171,51.0413170034623
106960,-0.343678742647171,50.8850700005755
107070,-0.343678742647171,50.9892421619496
107180,-0.344093084335327,51.0934068305408
107290,-0.344093084335327,50.8850700005755
107400,-0.343471586704254,50.7288229976886
107510,-0.343678742647171,50.676740663393
107620,-0.34305727481842,50.676740663393
107730,-0.34388592839241,50.9371523348711
107830,-0.343678742647171,51.0934068305408
107940,-0.342850118875504,51.0934068305408
108050,-0.34305727481842,50.9892421619496
108160,-0.344300240278244,50.7809053319842
108270,-0.34305727481842,50.676740663393
108380,-0.343678742647171,50.4684113262106
108490,-0.342642962932587,50.676740663393
108600,-0.344507396221161,50.5204936605062
108710,-0.34305727481842,50.676740663393
108820,-0.344507396221161,50.3642391648364
108930,-0.344714552164078,49.8434083290974
109040,-0.34388592839241,49.9475729976886
109150,-0.34305727481842,49.895490663393
109250,-0.344507396221161,49.635071499132
109360,-0.343678742647171,49.6871613262106
109470,-0.344093084335327,49.5309068305408
109580,-0.343678742647171,49.5829966576194
109690,-0.343678742647171,49.2184128247672
109800,-0.344093084335327,49.1663304904716
109910,-0.34388592839241,49.114240663393
110020,-0.344093084335327,49.1663229976886
110130,-0.343264430761337,49.1663229976886
110240,-0.343471586704254,49.2704951590628
110350,-0.343264430761337,49.2184128247672
110460,-0.343678742647171,49.0621658218804
110570,-0.34388592839241,48.853828991915
110670,-0.34305727481842,49.374659827654
110780,-0.34305727481842,49.6871613262106
110890,-0.344300240278244,49.7392436605062
111000,-0.344300240278244,49.5829891648364
111110,-0.343678742647171,49.7392436605062
111220,-0.344507396221161,49.374659827654
111330,-0.343264430761337,49.2184128247672
111440,-0.34388592839241,48.9579936605062
111550,-0.343264430761337,49.114248156176
111660,-0.344507396221161,48.853828991915
111770,-0.343678742647171,49.0621658218804
111880,-0.343471586704254,48.9059188189935
111980,-0.344507396221161,48.7496718161067
112090,-0.343678742647171,48.8017616431853
112200,-0.343471586704254,48.6975969745941
112310,-0.34243580698967,48.9059263117765
112420,-0.342850118875504,48.7496718161067
112530,-0.34243580698967,48.6975819890282
112640,-0.343264430761337,48.8017466576194
112750,-0.34305727481842,49.0100834875848
112860,-0.34243580698967,49.3225774933584
112970,-0.343678742647171,49.374667320437
113080,-0.34305727481842,49.374667320437
113190,-0.344921708106995,48.8538364846979
113300,-0.34388592839241,48.9059188189935
113400,-0.342228621244431,49.1663379832545
113510,-0.34388592839241,49.2184203175501
113620,-0.343471586704254,49.2705026518457
113730,-0.344093084335327,49.1663304904716
113840,-0.34243580698967,49.5829966576194
113950,-0.344714552164078,49.2704951590628
114060,-0.344093084335327,49.0621583290974
114170,-0.344714552164078,48.8017391648364
114280,-0.34388592839241,48.4892376662798
114390,-0.343471586704254,48.6975744962452
114500,-0.344714552164078,48.2809083290974
114610,-0.344921708106995,47.9684068305408
114710,-0.343471586704254,47.8642421619496
114820,-0.34305727481842,47.9163244962452
114930,-0.343678742647171,47.9684143233238
115040,-0.34305727481842,47.9684143233238
115150,-0.343471586704254,48.0204966576194
115260,-0.34388592839241,47.9684068305408
115370,-0.34305727481842,47.812159827654
115480,-0.344300240278244,47.7079951590628
115590,-0.345128864049912,47.3955011532892
115700,-0.342642962932587,47.6559128247672
115810,-0.343471586704254,47.4475834875848
115920,-0.34388592839241,47.6038304904716
116030,-0.343678742647171,47.4996658218804
116130,-0.34388592839241,47.3954936605062
116240,-0.343471586704254,47.6038304904716
116350,-0.342228621244431,48.0725864846979
116460,-0.343264430761337,47.8642571475155
116570,-0.343264430761337,48.0205116431853
116680,-0.344714552164078,47.4996808074463
116790,-0.343678742647171,47.3434338045594
116900,-0.344300240278244,47.3434338045594
117010,-0.344300240278244,47.0830146402985
117120,-0.342642962932587,47.3434263117765
117230,-0.344714552164078,47.0830071475155
117340,-0.34305727481842,46.8746703175501
117440,-0.34388592839241,46.6663334875848
117550,-0.344093084335327,46.6142511532892
117660,-0.343471586704254,46.7184233146633
117770,-0.344507396221161,46.7184233146633
117880,-0.34305727481842,47.0309248132199
118000,-0.343264430761337,47.1871793088897
118100,-0.344093084335327,47.0309248132199
118210,-0.345128864049912,46.4580116431853
118320,-0.34388592839241,46.1975924789243
118430,-0.342642962932587,46.4580041504023
118540,-0.344300240278244,46.4580041504023
118650,-0.343471586704254,46.6663409803677
118760,-0.344093084335327,46.4059218161067
118860,-0.344300240278244,46.0934203175501
118970,-0.344714552164078,45.8330011532892
119080,-0.344300240278244,45.989248156176
119190,-0.344093084335327,45.989248156176
119300,-0.34305727481842,45.8850834875848
119410,-0.343678742647171,46.249667320437
119520,-0.343264430761337,46.249667320437
119630,-0.343678742647171,46.4059218161067
119740,-0.344093084335327,46.4580041504023
119850,-0.344507396221161,46.0413379832545
119960,-0.343264430761337,46.0934203175501
120070,-0.343471586704254,46.0413379832545
120170,-0.344093084335327,46.0413379832545
120280,-0.343678742647171,45.9371733146633
120390,-0.34305727481842,46.3017571475155
120500,-0.343471586704254,46.4059293088897
120610,-0.344093084335327,45.8330086460721
120720,-0.343678742647171,45.9892631417419
120830,-0.34388592839241,45.9371733146633
120940,-0.344507396221161,45.7288364846979
121050,-0.34243580698967,46.0413304904716
121160,-0.343264430761337,46.249667320437
121270,-0.344714552164078,46.0934203175501
121380,-0.34388592839241,45.989248156176
121490,-0.343678742647171,45.989248156176
121590,-0.34305727481842,45.989248156176
121700,-0.343471586704254,46.0934203175501
121810,-0.343678742647171,46.0934203175501
121920,-0.34305727481842,46.0413379832545
122030,-0.34305727481842,46.0413379832545
122140,-0.344093084335327,46.0934203175501
122250,-0.34305727481842,46.0934203175501
122360,-0.344921708106995,45.7809188189935
122470,-0.342850118875504,45.7288364846979
122580,-0.34305727481842,46.0934203175501
122690,-0.344093084335327,45.8330011532892
122800,-0.343264430761337,46.1455026518457
122900,-0.344714552164078,46.1455026518457
123010,-0.343678742647171,46.1975924789243
123120,-0.343678742647171,46.0413454760375
123230,-0.344093084335327,46.1455101446287
123340,-0.343471586704254,46.1975924789243
123450,-0.34388592839241,46.2496748132199
123560,-0.34243580698967,46.5621688189935
123670,-0.343678742647171,46.5621688189935
123780,-0.343264430761337,46.7705056489589
123890,-0.34305727481842,46.9788424789243
124000,-0.344093084335327,46.9788424789243
124110,-0.343678742647171,46.8746778103331
124220,-0.342642962932587,47.0830071475155
124320,-0.34305727481842,47.1350894818111
124430,-0.344507396221161,46.9267526518457
124540,-0.34243580698967,47.2913364846979
124650,-0.342642962932587,47.3955011532892
124760,-0.344714552164078,46.9788349861414
124870,-0.34305727481842,47.2913364846979
124980,-0.34388592839241,47.3955011532892
125090,-0.34388592839241,47.3434113262106
125200,-0.343264430761337,47.6559128247672
125310,-0.343264430761337,47.6559128247672
125420,-0.34305727481842,47.8642496547326
125530,-0.342850118875504,47.9684143233238
125630,-0.34305727481842,48.332998156176
125740,-0.344093084335327,48.2288259948018
125850,-0.34388592839241,48.1246538334276
125960,-0.343264430761337,48.4371553319842
126070,-0.34388592839241,48.3850655049057
126180,-0.342850118875504,48.5413125077925
126290,-0.343264430761337,48.3329831706101
126400,-0.343678742647171,48.1246538334276
126510,-0.344093084335327,47.7079876662798
126620,-0.343678742647171,47.6038229976886
126730,-0.343471586704254,47.4996583290974
126840,-0.343471586704254,47.2392466576194
126950,-0.343264430761337,47.3434113262106
127050,-0.345543205738068,46.7184083290974
127160,-0.343264430761337,47.1350744962452
127270,-0.344714552164078,46.9267451590628
127380,-0.344300240278244,46.4059068305408
127490,-0.343264430761337,46.5621613262106
127600,-0.344300240278244,46.3538244962452
127710,-0.34388592839241,46.4059068305408
127820,-0.34243580698967,46.4059068305408
127930,-0.343678742647171,46.6663259948018
128040,-0.342642962932587,47.030909827654
128150,-0.344714552164078,47.030909827654
128260,-0.34388592839241,47.030909827654
128360,-0.342228621244431,47.3434113262106
128470,-0.343678742647171,47.6038304904716
128580,-0.343471586704254,47.9684143233238
128690,-0.34305727481842,48.072578991915
128800,-0.343678742647171,47.9163319890282
128910,-0.343264430761337,48.0204966576194
129020,-0.343264430761337,47.9684143233238
129130,-0.34388592839241,47.8642421619496
129240,-0.34388592839241,47.8642421619496
129350,-0.343678742647171,47.7079951590628
129460,-0.34388592839241,47.812159827654
129570,-0.343471586704254,48.2288259948018
129680,-0.344093084335327,47.8642421619496
129780,-0.344507396221161,47.6038229976886
129890,-0.344093084335327,47.551740663393
130000,-0.341814309358597,48.0204891648364
130110,-0.343678742647171,48.072578991915
130220,-0.343471586704254,48.072578991915
130330,-0.343264430761337,47.812159827654
130440,-0.342021465301514,48.1246613262106
130550,-0.344300240278244,47.8642421619496
130660,-0.343264430761337,48.2288259948018
130770,-0.343264430761337,48.332990663393
130880,-0.343264430761337,48.593409827654
130990,-0.34305727481842,48.9059113262106
131090,-0.344300240278244,48.4892451590628
131200,-0.343678742647171,48.7496643233238
131310,-0.343471586704254,48.6454996547326
131420,-0.342642962932587,48.9580011532892
131530,-0.34305727481842,49.2184203175501
131640,-0.34305727481842,49.3225849861414
131750,-0.343264430761337,49.6350864846979
131860,-0.345128864049912,49.1142556489589
131970,-0.344093084335327,48.9059188189935
132080,-0.343471586704254,49.0621733146633
132190,-0.34305727481842,49.5830041504023
132300,-0.344300240278244,49.4788394818111
132410,-0.343264430761337,49.3225924789243
132510,-0.343264430761337,49.5830116431853
132620,-0.344507396221161,49.3225924789243
132730,-0.34305727481842,49.5830116431853
132840,-0.34388592839241,49.6871763117765
132950,-0.343471586704254,49.9996778103331
133060,-0.34388592839241,50.1038424789243
133170,-0.34305727481842,50.3642616431853
133280,-0.342642962932587,50.4684263117765
133390,-0.343471586704254,50.5205086460721
133500,-0.34388592839241,50.3642541504023
133610,-0.342850118875504,50.5725834875848
133720,-0.345128864049912,50.3121718161067
133820,-0.343678742647171,50.5205086460721
133930,-0.343678742647171,50.4163439774809
134040,-0.34388592839241,50.3121718161067
134150,-0.343471586704254,50.4684263117765
134260,-0.343471586704254,50.5205086460721
134370,-0.342642962932587,50.6246733146633
134480,-0.34388592839241,50.5205011532892
134590,-0.34305727481842,50.7809203175501
134700,-0.34388592839241,50.7288304904716
134810,-0.34305727481842,50.937167320437
134920,-0.344714552164078,50.8850849861414
135030,-0.34243580698967,50.8850849861414
135140,-0.344093084335327,50.676748156176
135240,-0.344300240278244,50.7809128247672
135350,-0.342228621244431,51.1975864846979
135460,-0.344300240278244,51.0413319890282
135570,-0.343264430761337,50.9892496547326
135680,-0.34388592839241,50.8850774933584
135790,-0.344093084335327,50.7809053319842
135900,-0.343678742647171,50.6246583290974
136010,-0.343264430761337,50.5725759948018
136120,-0.343678742647171,50.676748156176
136230,-0.344300240278244,50.3642466576194
136340,-0.344300240278244,50.5204936605062
136450,-0.343678742647171,50.3121643233238
136550,-0.34388592839241,50.1038274933584
136660,-0.344714552164078,49.9475804904716
136770,-0.343264430761337,49.9475804904716
136880,-0.34388592839241,50.155909827654
136990,-0.343471586704254,50.2079921619496
137100,-0.344093084335327,50.1038200005755
137210,-0.344300240278244,50.0517376662798
137320,-0.344507396221161,49.7913185020189
137430,-0.343678742647171,49.8434083290974
137540,-0.34305727481842,49.6871613262106
137650,-0.343264430761337,49.7913259948018
137760,-0.34243580698967,49.9996553319842
137870,-0.343678742647171,49.8434083290974
137970,-0.34388592839241,49.895490663393
138080,-0.343264430761337,49.9996553319842
138190,-0.344300240278244,49.5829891648364
138300,-0.343471586704254,49.4788244962452
138410,-0.343471586704254,49.7392436605062
138520,-0.344507396221161,49.2184128247672
138630,-0.34388592839241,48.9059113262106
138740,-0.342642962932587,49.4267421619496
138850,-0.343678742647171,49.2704951590628
138960,-0.343471586704254,49.374667320437
139070,-0.344300240278244,49.2705026518457
139180,-0.34388592839241,49.114248156176
139280,-0.343471586704254,49.0621658218804
139390,-0.343678742647171,48.9059188189935
139500,-0.344300240278244,48.5413349861414
139610,-0.343471586704254,48.4371703175501
139720,-0.344093084335327,48.4371703175501
139830,-0.342850118875504,48.6975894818111
139940,-0.343678742647171,48.5934248132199
140050,-0.34388592839241,48.5934248132199
140160,-0.344093084335327,48.2809233146633
140270,-0.342850118875504,48.3850879832545
140380,-0.34305727481842,48.5413349861414
140490,-0.34388592839241,48.593417320437
140600,-0.343264430761337,48.6975819890282
140700,-0.343264430761337,48.7496643233238
140810,-0.342850118875504,48.9059113262106
140920,-0.343678742647171,48.8017466576194
141030,-0.343471586704254,49.3225849861414
141140,-0.344300240278244,49.0621658218804
141250,-0.344093084335327,49.2184128247672
141360,-0.34388592839241,49.3225774933584
141470,-0.342850118875504,49.4267421619496
141580,-0.343678742647171,49.5829966576194
141690,-0.342850118875504,49.8434158218804
141800,-0.343471586704254,49.5830041504023
141910,-0.343678742647171,49.5830041504023
142010,-0.342850118875504,49.5309218161067
142120,-0.344507396221161,49.5830041504023
142230,-0.34305727481842,49.7913409803677
142340,-0.342850118875504,49.6350864846979
142450,-0.344300240278244,49.4788319890282
142560,-0.344921708106995,49.114248156176
142670,-0.342850118875504,49.1663304904716
142780,-0.34243580698967,49.4788244962452
142890,-0.343264430761337,49.4788244962452
143000,-0.344507396221161,49.1663229976886
143110,-0.343471586704254,49.2704951590628
143220,-0.344300240278244,49.1663304904716
143330,-0.343264430761337,49.2704951590628
143430,-0.343471586704254,49.374667320437
143540,-0.343471586704254,49.374667320437
143650,-0.344714552164078,49.2184203175501
143760,-0.34388592839241,49.374667320437
143870,-0.343678742647171,49.4788394818111
143980,-0.342642962932587,49.2705026518457
144090,-0.343264430761337,49.374667320437
144200,-0.344300240278244,49.1663304904716
144310,-0.344300240278244,48.9059113262106
144420,-0.343471586704254,48.5413274933584
144530,-0.343678742647171,48.6975819890282
144640,-0.344507396221161,48.3850804904716
144740,-0.343264430761337,48.3850804904716
144850,-0.343678742647171,48.2809158218804
144960,-0.34305727481842,48.2809158218804
145070,-0.344714552164078,48.1767511532892
145180,-0.343471586704254,48.2288334875848
145290,-0.343471586704254,48.2288334875848
145400,-0.344507396221161,47.7600849861414
145510,-0.343264430761337,47.7080026518457
145620,-0.342850118875504,47.7600849861414
145730,-0.343264430761337,47.7600849861414
145840,-0.344507396221161,47.9163319890282
145950,-0.343678742647171,48.0205041504023
146060,-0.342642962932587,48.2288334875848
146160,-0.343678742647171,48.0725864846979
146270,-0.343678742647171,48.2288409803677
146380,-0.343471586704254,48.1767586460721
146490,-0.34243580698967,48.3850879832545
146600,-0.341814309358597,49.0621733146633
146710,-0.344300240278244,48.7496718161067
146820,-0.343678742647171,48.8017616431853
146930,-0.34243580698967,49.0621733146633
147040,-0.34305727481842,49.2705101446287
147150,-0.343264430761337,49.2184278103331
147260,-0.344300240278244,48.8017616431853
147370,-0.343678742647171,48.7496793088897
147470,-0.344507396221161,48.5934323060029
147580,-0.343678742647171,48.3851029688204
147690,-0.343678742647171,48.7496868016726
147800,-0.342850118875504,48.9580161388551
147910,-0.34388592839241,48.9059263117765
148020,-0.344093084335327,48.8538439774809
148130,-0.344921708106995,48.4892601446287
148240,-0.34388592839241,48.3850879832545
148350,-0.343471586704254,48.1767586460721
148460,-0.344507396221161,48.0205116431853
148570,-0.34305727481842,48.0205116431853
148680,-0.342850118875504,48.2809308074463
148790,-0.34305727481842,48.2809308074463
148890,-0.34243580698967,48.8538439774809
149000,-0.34243580698967,48.8538439774809
149110,-0.343471586704254,49.0100984731507
149220,-0.344093084335327,49.0621808074463
149330,-0.34388592839241,48.6455071475155
149440,-0.34243580698967,49.1142556489589
149550,-0.344300240278244,48.8538364846979
149660,-0.344093084335327,48.8017541504023
149770,-0.343678742647171,48.9059263117765
149880,-0.34243580698967,49.2184203175501
149990,-0.342850118875504,49.3225849861414
150100,-0.34305727481842,49.4788319890282
150200,-0.34243580698967,49.9475804904716
150310,-0.344093084335327,49.9996628247672
150420,-0.343678742647171,49.9996628247672
150530,-0.343264430761337,50.155917320437
150640,-0.343264430761337,50.5205011532892
150750,-0.343471586704254,50.4684188189935
150860,-0.343471586704254,50.5725909803677
150970,-0.344093084335327,50.4163364846979
151080,-0.344921708106995,50.2080071475155
151190,-0.344093084335327,50.2600894818111
151300,-0.34388592839241,50.4163364846979
151410,-0.343471586704254,50.4684188189935
151520,-0.343471586704254,50.3642541504023
151620,-0.344921708106995,49.9475879832545
151730,-0.343678742647171,49.6350939774809
151840,-0.342850118875504,49.8434233146633
151950,-0.34388592839241,49.8434233146633
152060,-0.342642962932587,49.9996703175501
152170,-0.344093084335327,50.0517526518457
152280,-0.343678742647171,49.9996703175501
152390,-0.344093084335327,49.8434158218804
152500,-0.34160715341568,50.5725834875848
152610,-0.343678742647171,50.6246733146633
152720,-0.344300240278244,50.2080071475155
152830,-0.34388592839241,50.155917320437
152930,-0.34388592839241,50.0517451590628
153040,-0.344093084335327,50.1038274933584
153150,-0.34388592839241,50.1038274933584
153260,-0.344921708106995,49.7392436605062
153370,-0.34388592839241,49.6871538334276
153480,-0.344300240278244,49.6871538334276
153590,-0.34305727481842,49.7913185020189
153700,-0.342850118875504,50.1038200005755
153810,-0.345336049795151,49.4788170034623
153920,-0.34305727481842,49.6350640063491
154030,-0.343471586704254,49.7392361677232
154140,-0.343678742647171,49.8434083290974
154250,-0.343471586704254,49.6871613262106
154350,-0.342850118875504,49.7392436605062
154460,-0.344507396221161,49.5829966576194
154570,-0.343264430761337,49.5829966576194
154680,-0.343678742647171,49.4788319890282
154790,-0.343471586704254,49.3225849861414
154900,-0.342642962932587,49.5829966576194
155010,-0.34388592839241,49.4788244962452
155120,-0.344507396221161,49.4267421619496
155230,-0.344921708106995,49.2184128247672
155340,-0.34388592839241,49.2184128247672
155450,-0.343678742647171,49.0100834875848
155560,-0.343264430761337,49.114248156176
155660,-0.343678742647171,48.9059188189935
155770,-0.34243580698967,49.1663304904716
155880,-0.34388592839241,49.114240663393
155990,-0.344507396221161,48.6975744962452
156100,-0.344093084335327,48.8017391648364
156210,-0.343471586704254,48.6975744962452
156320,-0.343471586704254,48.5413274933584
156430,-0.344300240278244,48.5413274933584
156540,-0.343471586704254,48.9059113262106
156650,-0.344921708106995,48.3850804904716
156760,-0.344093084335327,47.9684143233238
156870,-0.344300240278244,47.7079951590628
156980,-0.345336049795151,47.4996583290974
157080,-0.342850118875504,47.6559053319842
157190,-0.344300240278244,47.6559053319842
157300,-0.34388592839241,47.4996508363145
157410,-0.343264430761337,47.5517331706101
157520,-0.343678742647171,47.4996508363145
157630,-0.343471586704254,47.8121523348711
157740,-0.34388592839241,47.8121523348711
157850,-0.344093084335327,47.7079801734969
157960,-0.343471586704254,47.4996508363145
158070,-0.34388592839241,47.3433963406447
158180,-0.34305727481842,47.6558978392013
158290,-0.343471586704254,47.8642346691667
158390,-0.344300240278244,47.6558978392013
158500,-0.344300240278244,47.4996433435315
158610,-0.343264430761337,47.8121448420881
158720,-0.343471586704254,47.7600625077925
158830,-0.34388592839241,47.7079726807139
158940,-0.344300240278244,47.3954711821573
159050,-0.342228621244431,48.0204741792705
159160,-0.344300240278244,47.8121373493052
159270,-0.343678742647171,47.7600550150095
159380,-0.343264430761337,48.0725565135661
159490,-0.344300240278244,47.8121373493052
159600,-0.343471586704254,47.6558903464183
159710,-0.34388592839241,47.4996358507486
159810,-0.343264430761337,47.8121373493052
159920,-0.34305727481842,47.968384352192
160030,-0.34305727481842,47.8642196836008
160140,-0.343471586704254,47.9163020178964
160250,-0.34388592839241,47.8642121908178
160360,-0.34388592839241,47.7600400294436
160470,-0.343471586704254,47.4996283579656
160580,-0.34305727481842,47.187126859409
160690,-0.343678742647171,47.3433813550788
160800,-0.344093084335327,47.2392091937046
160910,-0.344507396221161,46.7183783579656
161020,-0.344093084335327,46.4579591937046
161120,-0.343471586704254,46.405876859409
161230,-0.344507396221161,46.3537945251134
161340,-0.343471586704254,46.405876859409
161450,-0.344093084335327,46.5100415280002
161560,-0.34388592839241,46.4579517009217
161670,-0.343471586704254,46.5100340352173
161780,-0.344921708106995,45.9892031994783
161890,-0.344300240278244,45.8850385308871
162000,-0.342850118875504,46.1975400294436
162110,-0.344093084335327,46.4058693666261
162220,-0.34305727481842,46.6142061965914
162330,-0.345336049795151,46.1454502023651
162440,-0.34243580698967,46.6662810381041
162540,-0.343678742647171,46.5100340352173
162650,-0.343471586704254,46.3537870323305
162760,-0.344093084335327,46.0933678680695
162870,-0.344300240278244,45.6246193666261
162980,-0.343471586704254,45.364207695148
163090,-0.34305727481842,45.4683723637392
163200,-0.34388592839241,45.5204546980349
163310,-0.34305727481842,45.7287915280002
163420,-0.344300240278244,45.2600430265568
163530,-0.34388592839241,45.364207695148
163640,-0.344093084335327,45.364207695148
163750,-0.344921708106995,45.0517061965914
163850,-0.34243580698967,45.0517061965914
163960,-0.343678742647171,44.843376859409
164070,-0.343471586704254,44.7392121908178
164180,-0.34388592839241,44.3746283579656
164290,-0.342850118875504,44.6871298565222
164400,-0.343678742647171,44.6871298565222
164510,-0.343678742647171,44.582965187931
164620,-0.344300240278244,44.32254602367
164730,-0.343678742647171,44.2704636893744
164840,-0.343678742647171,44.2183813550788
164950,-0.34305727481842,44.4788005193398
165060,-0.344300240278244,44.6350475222266
165170,-0.34305727481842,44.8954666864876
165270,-0.343264430761337,45.0517211821573
165380,-0.344507396221161,44.7913020178964
165490,-0.34388592839241,44.6871298565222
165600,-0.343471586704254,45.0517136893744
165710,-0.34388592839241,44.9996238622958
165820,-0.342642962932587,45.0517061965914
165930,-0.343471586704254,45.1558783579656
166040,-0.343678742647171,44.8954666864876
166150,-0.343678742647171,44.9996388478617
166260,-0.34305727481842,45.1558858507486
166370,-0.344714552164078,44.9996388478617
166480,-0.343678742647171,44.4788080121227
166580,-0.343264430761337,44.5829726807139
166690,-0.341814309358597,45.2079756778271
166800,-0.343264430761337,45.3642301734969
166910,-0.343678742647171,45.4163200005754
167020,-0.34388592839241,45.4684023348711
167130,-0.344093084335327,45.4163200005754
167240,-0.344093084335327,45.6246493377579
167350,-0.343678742647171,45.6767391648364
167460,-0.344093084335327,45.728821499132
167570,-0.345336049795151,45.1559008363145
167680,-0.34305727481842,45.1038185020189
167790,-0.34388592839241,45.4684023348711
167900,-0.344300240278244,45.1559008363145
168000,-0.344093084335327,44.9996463406447
168110,-0.344093084335327,44.8954741792705
168220,-0.343264430761337,44.9475565135661
168330,-0.342850118875504,44.9475565135661
168440,-0.342850118875504,45.3642226807139
168550,-0.344300240278244,45.1038035164529
168660,-0.34388592839241,45.0517136893744
168770,-0.344507396221161,44.7912945251134
168880,-0.343264430761337,44.6350475222266
168990,-0.342228621244431,45.0517211821573
169100,-0.343678742647171,45.2600580121227
169210,-0.344714552164078,45.3121403464183
169310,-0.343264430761337,45.4683948420881
169420,-0.342228621244431,45.8329786749403
169530,-0.343471586704254,45.7808963406447
169640,-0.343678742647171,45.7808963406447
169750,-0.342642962932587,45.7288140063491
169860,-0.344093084335327,45.6767316720535
169970,-0.342642962932587,46.1454801734969
170080,-0.344093084335327,46.1454801734969
170190,-0.343264430761337,46.1975625077925
170310,-0.343678742647171,46.1454801734969
170410,-0.344714552164078,46.0413155049057
170520,-0.344714552164078,45.7288140063491
170630,-0.343678742647171,46.0413155049057
170730,-0.344714552164078,45.8850685020189
170840,-0.34243580698967,46.3538170034623
170950,-0.344507396221161,46.5621538334276
171060,-0.344921708106995,46.0413229976886
171170,-0.344300240278244,46.0413229976886
171280,-0.344093084335327,45.989240663393
171390,-0.344507396221161,45.6767391648364
171500,-0.34305727481842,45.8329861677232
171610,-0.342021465301514,46.1975700005754
171720,-0.34388592839241,46.1975700005754
171830,-0.343471586704254,46.3538244962452
171940,-0.34305727481842,46.4579891648364
172040,-0.344300240278244,46.3538244962452
172150,-0.343264430761337,46.3017421619496
172260,-0.344093084335327,46.1454876662798
172370,-0.34305727481842,46.4579891648364
172480,-0.345336049795151,46.1975700005754
172590,-0.34388592839241,46.0413155049057
172700,-0.342850118875504,46.1975625077925
172810,-0.344300240278244,46.0933978392013
172920,-0.343471586704254,46.3017346691667
173030,-0.343471586704254,45.9892331706101
173140,-0.343471586704254,46.1975700005754
173250,-0.34388592839241,46.1454801734969
173360,-0.342850118875504,46.2496448420881
173460,-0.344093084335327,46.3017271763837
173570,-0.343471586704254,46.3017271763837
173680,-0.343678742647171,46.3538170034623
173790,-0.342642962932587,46.5100640063491
173900,-0.344507396221161,46.1454801734969
174010,-0.34243580698967,46.3017271763837
174120,-0.344093084335327,46.1454726807139
174230,-0.34305727481842,46.3538095106793
174350,-0.343471586704254,46.4579816720535
174450,-0.34305727481842,46.5621463406447
174560,-0.344714552164078,46.1454801734969
174670,-0.343678742647171,46.1454801734969
174770,-0.34388592839241,46.1975625077925
174880,-0.344300240278244,46.2496448420881
174990,-0.343471586704254,46.4058993377579
175100,-0.342642962932587,46.6142286749403
175210,-0.34388592839241,46.7704756778271
175320,-0.343264430761337,46.8225580121227
175430,-0.342850118875504,47.1350595106793
175540,-0.343471586704254,47.2392316720535
175650,-0.343471586704254,47.2392316720535
175760,-0.343678742647171,47.5517331706101
175870,-0.343264430761337,47.8121523348711
175980,-0.34243580698967,47.9163170034623
176090,-0.344300240278244,47.8642346691667
176190,-0.34388592839241,47.6558978392013
176300,-0.344300240278244,47.9163170034623
176410,-0.342850118875504,47.8121523348711
176520,-0.34243580698967,48.1246463406447
176630,-0.34305727481842,48.2288110092359
176740,-0.344300240278244,48.1767286749403
176850,-0.342642962932587,48.5933948420881
176960,-0.34305727481842,48.6975595106793
177070,-0.343678742647171,48.5413125077925
177180,-0.34305727481842,48.7496493377579
177290,-0.343264430761337,48.6975670034623
177400,-0.342228621244431,49.2184053319842
177500,-0.34388592839241,49.2184053319842
177610,-0.343264430761337,49.4267421619496
177720,-0.344714552164078,49.4788244962452
177830,-0.344507396221161,48.9579936605062
177940,-0.34388592839241,48.9059038334276
178050,-0.344921708106995,48.5413200005754
178160,-0.34388592839241,48.5413200005754
178270,-0.34305727481842,48.4892376662798
178380,-0.343678742647171,48.4892376662798
178490,-0.343471586704254,48.5413200005754
178600,-0.342850118875504,48.9059038334276
178710,-0.342642962932587,49.1663155049057
178820,-0.343471586704254,49.2183978392013
178920,-0.344300240278244,48.9058963406447
179030,-0.344714552164078,48.8017316720535
179140,-0.344300240278244,48.4892301734969
179250,-0.34305727481842,48.5413125077925
179360,-0.344714552164078,48.4892301734969
179470,-0.343264430761337,48.6454846691667
179580,-0.343264430761337,48.6975670034623
179690,-0.344300240278244,48.5934023348711
179800,-0.344300240278244,48.1767361677232
179910,-0.344300240278244,47.9683993377579
180020,-0.344507396221161,47.7600625077925
180130,-0.34388592839241,47.7079726807139
180230,-0.344300240278244,47.3954711821573
180340,-0.342850118875504,47.8642196836008
180450,-0.34388592839241,47.8121298565222
180560,-0.344093084335327,47.6037930265568
180670,-0.34305727481842,47.2912915280002
180780,-0.344300240278244,47.0308723637392
180890,-0.343678742647171,47.0308723637392
181000,-0.342642962932587,47.3433738622958
181110,-0.343471586704254,47.4996283579656
181220,-0.344714552164078,47.3433813550788
181330,-0.344093084335327,47.2392091937046
181440,-0.34305727481842,47.4996283579656
181550,-0.34388592839241,47.8642121908178
181650,-0.344507396221161,47.4996283579656
181760,-0.344093084335327,47.44754602367
181870,-0.343678742647171,47.6038005193398
181980,-0.343264430761337,47.8121373493052
182090,-0.345128864049912,47.5517256778271
182200,-0.34388592839241,47.3954711821573
182310,-0.344714552164078,46.9267226807139
182420,-0.344300240278244,46.5621388478617
182530,-0.34305727481842,46.8746403464183
182640,-0.343264430761337,47.0308948420881
182750,-0.343678742647171,47.2392316720535
182860,-0.343471586704254,47.1871493377579
182960,-0.343678742647171,46.8225655049057
183070,-0.343264430761337,46.9267301734969
183180,-0.343678742647171,47.1871493377579
183290,-0.343471586704254,47.1350670034623
183400,-0.343264430761337,46.8746478392013
183510,-0.344093084335327,46.7183933435315
183620,-0.344714552164078,46.4579741792705
183730,-0.343678742647171,46.1975625077925
183840,-0.344507396221161,46.0933978392013
183950,-0.342850118875504,46.0413155049057
184060,-0.343264430761337,46.2496523348711
184170,-0.344093084335327,46.0413155049057
184280,-0.344300240278244,45.8850610092359
184380,-0.342642962932587,46.4058918449749
184490,-0.342850118875504,46.8746403464183
184600,-0.343471586704254,46.9267226807139
184710,-0.342850118875504,47.3954711821573
184820,-0.343678742647171,47.0829771763837
184930,-0.342642962932587,47.5517256778271
185040,-0.343678742647171,47.8642271763837
185150,-0.343678742647171,48.0204816720535
185260,-0.343471586704254,48.1767361677232
185370,-0.343678742647171,48.3850729976886
185480,-0.344093084335327,48.1246538334276
185590,-0.342850118875504,47.9163170034623
185690,-0.343678742647171,47.9684068305408
185800,-0.34388592839241,47.8642346691667
185910,-0.343678742647171,47.7079876662798
186020,-0.344921708106995,47.551740663393
186130,-0.343678742647171,47.4475759948018
186240,-0.34305727481842,47.7079951590628
186350,-0.343678742647171,47.551748156176
186460,-0.343678742647171,47.9684218161067
186570,-0.343471586704254,48.0725939774809
186680,-0.344093084335327,47.7600924789243
186790,-0.34305727481842,48.0725939774809
186900,-0.34305727481842,48.1767586460721
187010,-0.34388592839241,48.0725864846979
187110,-0.343264430761337,48.1246688189935
187220,-0.343264430761337,48.2809233146633
187330,-0.34388592839241,48.0205041504023
187440,-0.342850118875504,48.3330056489589
187550,-0.343471586704254,48.3330056489589
187660,-0.343264430761337,48.4371703175501
187770,-0.344714552164078,47.9163394818111
187880,-0.344093084335327,48.0205041504023
187990,-0.343678742647171,47.7080101446287
188100,-0.343471586704254,47.8642646402985
188210,-0.343264430761337,47.8121823060029
188320,-0.343471586704254,47.8121823060029
188420,-0.344093084335327,47.5517631417419
188530,-0.342228621244431,48.1767661388551
188640,-0.34388592839241,48.1246763117765
188750,-0.343471586704254,48.2288484731507
188860,-0.34388592839241,48.3330131417419
188970,-0.344507396221161,48.0725939774809
189080,-0.344714552164078,47.5517631417419
189190,-0.343264430761337,47.7080176374116
189300,-0.342642962932587,47.8642646402985
189410,-0.343678742647171,47.655935303116
189520,-0.343678742647171,47.6038529688204
189630,-0.344507396221161,47.3434338045594
189740,-0.344300240278244,47.1871793088897
189840,-0.344507396221161,46.8746778103331
189950,-0.34388592839241,46.5100939774809
190060,-0.344093084335327,46.5621763117765
190170,-0.343678742647171,46.6142661388551
190280,-0.34305727481842,46.9267676374116
190390,-0.343678742647171,46.7184383002292
190500,-0.344093084335327,46.3017721330814
190610,-0.342850118875504,46.353854467377
190720,-0.34388592839241,46.4580191359682
190830,-0.34388592839241,46.1455176374116
190940,-0.34305727481842,46.1455176374116
191050,-0.342850118875504,46.3538469745941
191160,-0.34305727481842,46.3538469745941
191260,-0.343678742647171,46.2496823060029
191370,-0.344093084335327,45.7809263117765
191480,-0.34388592839241,45.7809263117765
191590,-0.344921708106995,45.3642601446287
191700,-0.34305727481842,45.7809263117765
191810,-0.34388592839241,45.9371733146633
191920,-0.344300240278244,45.8330086460721
192030,-0.343471586704254,46.1975924789243
192140,-0.34388592839241,46.1975924789243
192250,-0.344093084335327,45.9371733146633
192360,-0.343678742647171,45.9371733146633
192470,-0.34388592839241,45.8330011532892
192570,-0.343264430761337,45.7288364846979
192680,-0.344093084335327,45.3642526518457
192790,-0.344093084335327,45.207998156176
192900,-0.343678742647171,45.3642526518457
193010,-0.344093084335327,45.5204996547326
193120,-0.34388592839241,45.6246643233238
193230,-0.344507396221161,45.2600804904716
193340,-0.342642962932587,45.7809113262106
193450,-0.342642962932587,45.9371583290974
193560,-0.343678742647171,45.8329936605062
193670,-0.34388592839241,45.9371583290974
193780,-0.34388592839241,46.0413229976886
193890,-0.342850118875504,46.4059068305408
193990,-0.344093084335327,46.510071499132
194100,-0.344507396221161,46.3538244962452
194210,-0.343471586704254,46.5621613262106
194320,-0.344921708106995,46.0413304904716
194430,-0.34388592839241,46.0413304904716
194540,-0.34388592839241,46.0934128247672
194650,-0.342642962932587,46.1975774933584
194760,-0.344507396221161,46.1454951590628
194870,-0.343471586704254,46.1975774933584
194980,-0.343678742647171,45.9371658218804
195090,-0.343471586704254,45.9371658218804
195200,-0.343678742647171,46.1975849861414
195300,-0.343471586704254,46.3538394818111
195410,-0.343678742647171,46.1975924789243
195520,-0.344714552164078,45.9892631417419
195630,-0.343678742647171,46.1975999717073
195740,-0.342850118875504,46.5101014702638
195850,-0.344093084335327,46.4059293088897
195960,-0.344300240278244,46.1455101446287
196070,-0.342642962932587,46.7705056489589
196180,-0.343678742647171,46.8225954760375
196290,-0.343678742647171,47.0830146402985
196400,-0.344300240278244,47.0830146402985
196510,-0.344300240278244,46.7705131417419
196620,-0.34388592839241,46.6142586460721
196720,-0.343264430761337,46.7184233146633
196830,-0.343678742647171,46.6663409803677
196940,-0.343264430761337,46.7705056489589
197050,-0.342850118875504,46.8746703175501
197160,-0.344093084335327,46.770498156176
197270,-0.34305727481842,46.8746628247672
197380,-0.344714552164078,46.510078991915
197490,-0.344093084335327,46.510078991915
197600,-0.344507396221161,46.5621613262106
197710,-0.344921708106995,46.249659827654
197820,-0.34388592839241,46.4059068305408
197930,-0.34305727481842,46.3538244962452
198030,-0.342228621244431,46.6142436605062
198140,-0.344507396221161,46.510078991915
198250,-0.344921708106995,46.3538319890282
198360,-0.344507396221161,45.8850834875848
198470,-0.343678742647171,45.6767541504023
198580,-0.34388592839241,45.5725819890282
198690,-0.34305727481842,45.5204996547326
198800,-0.34388592839241,45.468409827654
198910,-0.34388592839241,45.1559083290974
199020,-0.343471586704254,45.207990663393
199130,-0.342642962932587,45.4684023348711
199240,-0.342021465301514,45.8329861677232
199350,-0.34305727481842,45.9892331706101
199450,-0.34305727481842,46.2496523348711
199560,-0.344093084335327,45.9371508363145
199670,-0.343678742647171,45.9371508363145
199780,-0.342642962932587,46.2496523348711
199890,-0.345128864049912,45.8850685020189
200000,-0.343678742647171,46.1975700005754
200110,-0.34388592839241,46.1454801734969
200220,-0.344093084335327,45.8850610092359
200330,-0.343264430761337,45.9892256778271
200440,-0.34305727481842,46.1454726807139
200550,-0.342642962932587,46.3538020178964
200660,-0.344093084335327,46.3538020178964
200760,-0.34305727481842,46.3538020178964
200870,-0.345128864049912,45.8329711821573
200980,-0.343264430761337,45.9892256778271
201090,-0.344507396221161,45.6767241792705
201200,-0.343471586704254,45.6246418449749
201310,-0.343471586704254,45.7288140063491
201420,-0.343471586704254,45.5725670034623
201530,-0.34388592839241,45.4683948420881
201640,-0.343471586704254,45.4163125077925
201750,-0.342850118875504,45.8850610092359
201860,-0.344507396221161,45.7808963406447
201970,-0.34305727481842,45.9371433435315
202080,-0.34388592839241,45.8329711821573
202180,-0.34388592839241,45.6767166864876
202290,-0.34305727481842,45.7808813550788
202400,-0.343471586704254,45.9371358507486
202510,-0.34388592839241,45.5204621908178
202620,-0.343264430761337,45.6767166864876
202730,-0.343678742647171,45.624634352192
202840,-0.343678742647171,45.6767241792705
202950,-0.343678742647171,45.8850610092359
203060,-0.343471586704254,46.1975625077925
203170,-0.342642962932587,46.3538095106793
203280,-0.344093084335327,45.9892256778271
203390,-0.343264430761337,46.0933903464183
203490,-0.343264430761337,46.1975550150095
203600,-0.344714552164078,46.1454726807139
203710,-0.342850118875504,46.5100565135661
203820,-0.344093084335327,46.6142211821573
203930,-0.344093084335327,46.5621388478617
204040,-0.342642962932587,46.9267226807139
204150,-0.342642962932587,47.187134352192
204260,-0.34388592839241,46.9787975222266
204370,-0.343471586704254,47.0308798565222
204480,-0.343264430761337,47.2392166864876
204590,-0.343264430761337,47.1350520178964
204700,-0.34388592839241,47.1350520178964
204810,-0.34388592839241,47.1350520178964
204910,-0.34388592839241,46.926715187931
205020,-0.344507396221161,46.5100490207832
205130,-0.342642962932587,46.6142136893744
205240,-0.34305727481842,46.7704606922612
205350,-0.342642962932587,47.1350445251134
205460,-0.343471586704254,47.2392166864876
205570,-0.344093084335327,47.44754602367
205680,-0.342850118875504,47.4996283579656
205790,-0.343264430761337,47.6558828536354
205900,-0.344093084335327,47.707965187931
206010,-0.343678742647171,47.6558828536354
206120,-0.344300240278244,47.5517181850442
206220,-0.343471586704254,47.7079726807139
206330,-0.343471586704254,47.7600550150095
206440,-0.343264430761337,47.9163095106793
206550,-0.34388592839241,47.7600550150095
206660,-0.344300240278244,47.7079726807139
206770,-0.342850118875504,48.0204741792705
206880,-0.34305727481842,48.1767211821573
206990,-0.344300240278244,48.1246388478617
207100,-0.34388592839241,48.1246388478617
207210,-0.343471586704254,48.3850580121227
207320,-0.343264430761337,48.2288110092359
207430,-0.34243580698967,48.2808933435315
207540,-0.34388592839241,48.2288035164529
207640,-0.343678742647171,48.2808933435315
207750,-0.343264430761337,48.4371478392013
207860,-0.344714552164078,47.9683993377579
207970,-0.344300240278244,47.9163170034623
208080,-0.344921708106995,47.8121523348711
208190,-0.344300240278244,47.6038155049057
208300,-0.34388592839241,47.8642271763837
208410,-0.342642962932587,48.1767286749403
208520,-0.342642962932587,48.4892301734969
208630,-0.343471586704254,48.2809008363145
208740,-0.344300240278244,48.3329831706101
208850,-0.34388592839241,48.2288110092359
208950,-0.343678742647171,48.2288110092359
209060,-0.342850118875504,48.3850580121227
209170,-0.343471586704254,48.4371403464183
209280,-0.344093084335327,48.2808858507486
209390,-0.343678742647171,48.2808858507486
209500,-0.343264430761337,48.6454696836008
209610,-0.343471586704254,48.6975520178964
209720,-0.34388592839241,48.4371328536354
209830,-0.34388592839241,48.489215187931
209940,-0.343264430761337,48.749634352192
210050,-0.344300240278244,48.3329681850442
210160,-0.344093084335327,48.22879602367
210270,-0.34305727481842,48.3850430265568
210370,-0.343471586704254,48.5933798565222
210480,-0.344300240278244,48.5933798565222
210590,-0.343471586704254,48.6975520178964
210700,-0.343678742647171,48.5933873493052
210810,-0.343264430761337,48.6975520178964
210920,-0.344300240278244,48.4371328536354
211030,-0.34305727481842,48.3850505193398
211140,-0.344714552164078,48.2288035164529
211250,-0.343264430761337,48.1767211821573
211360,-0.34305727481842,48.5933873493052
211470,-0.34388592839241,48.6454696836008
211580,-0.344507396221161,48.6454696836008
211680,-0.343678742647171,48.9579711821573
211790,-0.343471586704254,49.0621433435315
211900,-0.343471586704254,48.9579786749403
212010,-0.344093084335327,48.4892226807139
212120,-0.344507396221161,48.4892226807139
212230,-0.34388592839241,48.749634352192
212340,-0.344714552164078,48.6975520178964
212450,-0.343264430761337,48.8017166864876
212560,-0.342228621244431,49.2183903464183
212670,-0.344714552164078,48.8017241792705
212780,-0.344093084335327,48.7496418449749
212890,-0.343264430761337,48.9058963406447
213000,-0.344300240278244,48.6975595106793
213100,-0.343678742647171,48.4371478392013
213210,-0.344714552164078,47.7600625077925
213320,-0.34388592839241,47.5517256778271
213430,-0.343678742647171,47.3954786749403
213540,-0.343471586704254,47.5517331706101
213650,-0.343471586704254,47.6038155049057
213760,-0.344300240278244,47.1871493377579
213870,-0.343471586704254,47.6038155049057
213980,-0.343471586704254,47.6558978392013
214090,-0.34388592839241,47.6558978392013
214200,-0.343678742647171,47.7600700005754
214310,-0.34305727481842,47.8121523348711
214410,-0.344093084335327,47.5517331706101
214520,-0.343471586704254,47.3434038334276
214630,-0.344507396221161,47.2392391648364
214740,-0.343471586704254,47.1350744962452
214850,-0.342642962932587,47.7600700005754
214960,-0.343471586704254,47.7079876662798
215070,-0.34305727481842,48.072571499132
215180,-0.344093084335327,47.9163170034623
215290,-0.342850118875504,48.0725640063491
215400,-0.343264430761337,48.1246463406447
215510,-0.34243580698967,48.4892301734969
215620,-0.343471586704254,48.4892301734969
215730,-0.345128864049912,47.9163170034623
215830,-0.344093084335327,48.0204816720535
215940,-0.342642962932587,48.1246463406447
216050,-0.343471586704254,48.2288185020189
216160,-0.343264430761337,48.3850729976886
216270,-0.344300240278244,48.072571499132
216380,-0.344093084335327,47.9163170034623
216490,-0.343678742647171,47.9684068305408
216600,-0.345336049795151,47.4475685020189
216710,-0.34243580698967,47.7600625077925
216820,-0.344300240278244,47.6038080121227
216930,-0.343264430761337,47.7079726807139
217040,-0.342228621244431,48.0204741792705
217140,-0.342642962932587,48.0204741792705
217250,-0.344507396221161,47.9163095106793
217360,-0.344300240278244,47.6558903464183
217470,-0.344300240278244,47.3954711821573
217580,-0.34388592839241,47.6038005193398
217690,-0.343678742647171,47.3954711821573
217800,-0.343678742647171,47.4996433435315
217910,-0.343471586704254,47.6558978392013
218020,-0.344507396221161,47.1871493377579
218130,-0.34305727481842,47.0829846691667
218240,-0.344921708106995,46.8225729976886
218350,-0.344093084335327,46.6663185020189
218460,-0.344507396221161,46.3538170034623
218560,-0.343471586704254,46.3017346691667
218670,-0.341814309358597,46.8225729976886
218780,-0.343471586704254,46.9267451590628
218890,-0.343471586704254,47.030917320437
219000,-0.344921708106995,46.9267526518457
219110,-0.343471586704254,46.7184233146633
219220,-0.344093084335327,46.4580041504023
219330,-0.344093084335327,46.0934203175501
219440,-0.344093084335327,45.9371658218804
219550,-0.344093084335327,45.9371658218804
219660,-0.344714552164078,45.468417320437
219770,-0.342850118875504,45.5725819890282
219870,-0.34305727481842,45.8330011532892
219980,-0.342850118875504,46.0413304904716
220090,-0.34388592839241,46.1454951590628
220200,-0.343264430761337,46.1975774933584
220310,-0.344507396221161,45.9371583290974
220420,-0.34388592839241,45.7809038334276
220530,-0.343471586704254,45.8850759948018
220640,-0.343264430761337,46.1454951590628
220750,-0.342228621244431,46.3017496547326
220860,-0.342642962932587,46.4059143233238
220970,-0.343678742647171,46.5621688189935
221080,-0.343264430761337,46.7184233146633
221190,-0.34305727481842,46.8225879832545
221290,-0.344300240278244,46.5621688189935
221400,-0.343678742647171,46.2496748132199
221510,-0.344507396221161,46.0934278103331
221620,-0.343471586704254,46.1455101446287
221730,-0.343678742647171,46.0413454760375
221840,-0.34388592839241,46.2496748132199
221950,-0.344300240278244,46.2496748132199
222060,-0.343471586704254,46.6142586460721
222170,-0.344507396221161,46.5621763117765
222280,-0.344714552164078,46.3538469745941
222390,-0.34388592839241,46.0413454760375
222500,-0.344507396221161,45.5725969745941
222600,-0.34388592839241,45.4684248132199
222710,-0.34305727481842,45.7809263117765
222820,-0.343678742647171,45.8330161388551
222930,-0.343264430761337,45.9371808074463
223040,-0.34243580698967,46.0413454760375
223150,-0.342642962932587,46.2496748132199
223260,-0.343264430761337,46.4580116431853
223370,-0.34388592839241,46.4059218161067
223480,-0.34388592839241,46.249667320437
223590,-0.34243580698967,46.510078991915
223700,-0.343264430761337,46.6663334875848
223810,-0.344300240278244,46.5621688189935
223920,-0.344714552164078,46.1975849861414
224020,-0.342850118875504,46.5621688189935
224130,-0.34388592839241,46.6142511532892
224240,-0.344093084335327,46.3538319890282
224350,-0.34388592839241,46.249659827654
224460,-0.344921708106995,46.0934128247672
224570,-0.343264430761337,46.1454951590628
224680,-0.34305727481842,46.3017421619496
224790,-0.343678742647171,46.1975774933584
224900,-0.34305727481842,46.510078991915
225010,-0.344507396221161,46.1454951590628
225120,-0.34388592839241,46.3538244962452
225230,-0.344093084335327,46.1454876662798
225330,-0.342642962932587,46.2496523348711
225440,-0.344300240278244,46.1454876662798
225550,-0.34305727481842,46.510071499132
225660,-0.343678742647171,46.510071499132
225770,-0.343471586704254,46.510071499132
225880,-0.344300240278244,46.3017346691667
225990,-0.343678742647171,46.4059068305408
226100,-0.343678742647171,46.6142436605062
226210,-0.344300240278244,46.510078991915
226320,-0.343264430761337,46.8746628247672
226430,-0.344093084335327,46.6663259948018
226540,-0.343678742647171,46.3017421619496
226650,-0.34388592839241,46.510071499132
226750,-0.34388592839241,46.5621538334276
226860,-0.344507396221161,46.2496523348711
226970,-0.34305727481842,46.5621538334276
227080,-0.342642962932587,46.8225655049057
227190,-0.344300240278244,46.9267301734969
227300,-0.342850118875504,47.1871493377579
227410,-0.343264430761337,47.2913140063491
227520,-0.343678742647171,47.2392316720535
227630,-0.34388592839241,47.1350595106793
227740,-0.343264430761337,47.3954786749403
227850,-0.343678742647171,47.3433963406447
227960,-0.34305727481842,47.4475610092359
228060,-0.344300240278244,47.3433963406447
228170,-0.344921708106995,47.0308948420881
228280,-0.34305727481842,47.0308948420881
228390,-0.343471586704254,47.1871493377579
228500,-0.343264430761337,47.2392316720535
228610,-0.34305727481842,47.6038155049057
228720,-0.34305727481842,47.7079801734969
228830,-0.341399997472763,48.0204816720535
228940,-0.34388592839241,47.9163095106793
229050,-0.343678742647171,47.7600625077925
229160,-0.343471586704254,47.9163170034623
229270,-0.343264430761337,47.8121523348711
229380,-0.343678742647171,47.7079876662798
229480,-0.344093084335327,47.291321499132
229590,-0.34305727481842,47.3954861677232
229700,-0.344921708106995,47.4475685020189
229810,-0.343264430761337,47.6559053319842
229920,-0.34305727481842,47.551740663393
230030,-0.342642962932587,47.7600700005754
230140,-0.343264430761337,47.7600700005754
230250,-0.34388592839241,47.8642346691667
230360,-0.34243580698967,48.2809008363145
230470,-0.343264430761337,48.3850655049057
230580,-0.344300240278244,48.6454846691667
230690,-0.343471586704254,48.3850729976886
230790,-0.34388592839241,48.4892376662798
230900,-0.344093084335327,48.2809008363145
231010,-0.343678742647171,47.9163170034623
231120,-0.342850118875504,47.8642346691667
231230,-0.34305727481842,48.2288185020189
231340,-0.34305727481842,48.5413200005754
231450,-0.344093084335327,48.5934023348711
231560,-0.342642962932587,48.9059038334276
231670,-0.343678742647171,48.9059038334276
231780,-0.344714552164078,48.6454846691667
231890,-0.343471586704254,48.6454846691667
232000,-0.343678742647171,48.853821499132
232110,-0.344300240278244,48.5413200005754
232210,-0.342642962932587,49.1142331706101
232320,-0.34305727481842,49.3746523348711
232430,-0.344300240278244,49.4267346691667
232540,-0.344300240278244,49.2183978392013
232650,-0.342850118875504,48.9579786749403
232760,-0.344507396221161,48.6975595106793
232870,-0.342850118875504,48.8538065135661
232980,-0.344300240278244,49.0100535164529
233090,-0.343471586704254,49.0100535164529
233200,-0.344093084335327,49.0100535164529
233310,-0.344714552164078,48.8538065135661
233420,-0.34388592839241,48.9058888478617
233520,-0.34388592839241,48.9579711821573
233630,-0.343471586704254,49.2704726807139
233740,-0.344300240278244,48.9058888478617
233850,-0.34388592839241,48.6975520178964
233960,-0.342642962932587,48.749634352192
234070,-0.344093084335327,48.6975520178964
234180,-0.344300240278244,48.4371328536354
234290,-0.34305727481842,48.8017166864876
234400,-0.34388592839241,48.8017166864876
234510,-0.344300240278244,48.5933798565222
234620,-0.344093084335327,48.3850430265568
234730,-0.34305727481842,48.1767061965914
234840,-0.342850118875504,48.1246238622958
234940,-0.344714552164078,47.8642046980349
235050,-0.343678742647171,47.7600400294436
235160,-0.344093084335327,47.4996208651827
235270,-0.344093084335327,47.5517031994783
235380,-0.342850118875504,47.7600325366607
235490,-0.343678742647171,47.9683693666261
235600,-0.343264430761337,48.0204517009217
235710,-0.343678742647171,48.0204517009217
235820,-0.343264430761337,48.1767061965914
235930,-0.34388592839241,48.2808708651827
236040,-0.344093084335327,48.1246163695129
236150,-0.34388592839241,48.2808633723997
236250,-0.344093084335327,48.4371103752865
236360,-0.342642962932587,48.7496118738431
236470,-0.343264430761337,49.0621133723997
236580,-0.344507396221161,48.9058663695129
236690,-0.343678742647171,48.7496193666261
236800,-0.343678742647171,48.7496193666261
236910,-0.343678742647171,48.6454546980349
237020,-0.34305727481842,48.489207695148
237130,-0.34305727481842,48.3850430265568
237240,-0.344507396221161,48.0725415280002
237350,-0.343471586704254,48.1767136893744
237460,-0.344300240278244,48.0725490207832
237570,-0.342850118875504,47.968384352192
237670,-0.342850118875504,48.0725490207832
237780,-0.344300240278244,48.0725490207832
237890,-0.343471586704254,48.3850505193398
238000,-0.343678742647171,48.1767211821573
238110,-0.343678742647171,48.2288110092359
238220,-0.344093084335327,48.2288110092359
238330,-0.34388592839241,48.2288110092359
238440,-0.342850118875504,48.7496418449749
238550,-0.342850118875504,48.8538065135661
238660,-0.343471586704254,48.7496418449749
238770,-0.34388592839241,48.6975520178964
238880,-0.34388592839241,48.489215187931
238980,-0.342850118875504,48.9058813550788
239090,-0.343678742647171,48.9579711821573
239200,-0.342850118875504,49.2704726807139
239310,-0.34305727481842,49.1663080121227
239420,-0.343678742647171,49.3225625077925
239530,-0.344093084335327,49.0621433435315
239640,-0.343264430761337,49.1663080121227
239750,-0.34388592839241,49.0621358507486
239860,-0.344300240278244,49.0621358507486
239970,-0.344507396221161,48.8537990207832
240080,-0.343471586704254,48.9058813550788
240190,-0.34305727481842,49.2183828536354
240300,-0.344300240278244,48.9579636893744
240400,-0.34388592839241,49.01004602367
240510,-0.343678742647171,49.01004602367
240620,-0.34305727481842,49.2183828536354
240730,-0.344093084335327,49.1663005193398
240840,-0.343678742647171,49.3746373493052
240950,-0.343678742647171,49.2183903464183
241060,-0.342850118875504,49.1663080121227
241170,-0.342850118875504,49.5308918449749
241280,-0.343678742647171,49.3225625077925
241390,-0.344093084335327,49.1142256778271
241500,-0.34388592839241,49.0621358507486
241610,-0.34388592839241,49.0621358507486
241710,-0.344093084335327,48.8537990207832
241820,-0.343678742647171,48.8537990207832
241930,-0.34388592839241,48.6454621908178
242040,-0.343471586704254,48.8537990207832
242150,-0.34388592839241,49.1142106922612
242260,-0.34305727481842,49.1142106922612
242370,-0.343678742647171,49.0621283579656
242480,-0.34388592839241,48.9058738622958
242590,-0.34388592839241,48.6975370323305
242700,-0.343264430761337,48.6454546980349
242810,-0.342850118875504,48.2808708651827
242920,-0.344300240278244,48.1767061965914
243030,-0.343264430761337,48.2808708651827
243130,-0.343678742647171,48.2287885308871
243240,-0.342642962932587,48.3850355337739
243350,-0.343471586704254,48.4371178680695
243460,-0.344300240278244,48.3850355337739
243570,-0.343678742647171,48.2287885308871
243680,-0.34388592839241,48.4892002023651
243790,-0.343678742647171,48.3850355337739
243900,-0.343264430761337,48.3329531994783
244010,-0.343678742647171,48.0725415280002
244120,-0.342850118875504,48.1767061965914
244230,-0.34388592839241,48.1767061965914
244340,-0.344093084335327,47.7600400294436
244440,-0.34388592839241,47.6037855337739
244550,-0.343678742647171,47.7600400294436
244660,-0.344300240278244,47.5517031994783
244770,-0.342642962932587,47.8642046980349
244880,-0.342642962932587,48.2287885308871
244990,-0.343471586704254,48.2808708651827
245100,-0.343678742647171,48.0725415280002
245210,-0.344714552164078,47.6558753608524
245320,-0.343471586704254,47.5517106922612
245430,-0.344507396221161,47.44754602367
245540,-0.34388592839241,47.1350445251134
245650,-0.342850118875504,47.3433738622958
245760,-0.342850118875504,47.8121223637392
245860,-0.34305727481842,47.9162870323305
245970,-0.343264430761337,48.0204517009217
246080,-0.344507396221161,47.9683693666261
246190,-0.34388592839241,47.6558678680695
246300,-0.34388592839241,47.4475310381041
246410,-0.34243580698967,47.9162795395475
246520,-0.34388592839241,48.0204442081387
246630,-0.342850118875504,48.0204442081387
246740,-0.343264430761337,48.3329457066953
246850,-0.343471586704254,48.1766987038085
246960,-0.34243580698967,48.6454472052519
247070,-0.344093084335327,48.4891927095821
247170,-0.343471586704254,48.6454472052519
247280,-0.344921708106995,48.5933648709563
247390,-0.34388592839241,48.5933648709563
247500,-0.344714552164078,48.3850355337739
247610,-0.343678742647171,48.3329531994783
247720,-0.344093084335327,48.3850355337739
247830,-0.343264430761337,48.5412900294436
247940,-0.34305727481842,48.4371253608524
248050,-0.344507396221161,48.3329606922612
248160,-0.342850118875504,48.6975445251134
248270,-0.343678742647171,48.5412975222266
248380,-0.343678742647171,48.5933873493052
248490,-0.343264430761337,48.8538065135661
248590,-0.343678742647171,48.9579786749403
248700,-0.342850118875504,49.0100610092359
248810,-0.34388592839241,48.7496418449749
248920,-0.344093084335327,48.9058888478617
249030,-0.344714552164078,48.6454696836008
249140,-0.344300240278244,0
249250,-0.343678742647171,100
249360,-0.342850118875504,47.2100874984586
249470,-0.344093084335327,46.9868617442147
249580,-0.34305727481842,47.0984665933659
249690,-0.34243580698967,37.1531329923274
249800,-0.342021465301514,30.8238441304945
249900,-0.34305727481842,31.1079378261381
250010,-0.342642962932587,31.6050941304945
250120,-0.344093084335327,31.5340732609236
250230,-0.345128864049912,49.5308918449749
250340,-0.343471586704254,49.3225625077925
250450,-0.343678742647171,49.2183978392013
250560,-0.344714552164078,49.1663155049057
250670,-0.344093084335327,49.0621433435315
250780,-0.342642962932587,49.3225550150095
250890,-0.342850118875504,49.530884352192
251000,-0.345128864049912,49.0100535164529
251110,-0.343471586704254,48.9058888478617
251220,-0.343264430761337,49.2183903464183
251320,-0.344093084335327,49.0621358507486
251430,-0.343471586704254,49.2704726807139
251540,-0.34388592839241,49.0100535164529
251650,-0.342850118875504,49.0100535164529
251760,-0.342850118875504,49.3746373493052
251870,-0.344093084335327,49.2183828536354
251980,-0.343471586704254,49.270465187931
252090,-0.344714552164078,49.01004602367
252200,-0.344093084335327,49.01004602367
252310,-0.343471586704254,49.1142181850442
252420,-0.343471586704254,48.9579711821573
252530,-0.343471586704254,48.8017241792705
252630,-0.342850118875504,48.9579711821573
252740,-0.343678742647171,49.0100610092359
252850,-0.343471586704254,49.1142331706101
252960,-0.344093084335327,48.8017316720535
253070,-0.343471586704254,48.8538140063491
253180,-0.34388592839241,48.5933948420881
253290,-0.343264430761337,48.5413125077925
253400,-0.342642962932587,48.8017241792705
253510,-0.34243580698967,49.2183903464183
253620,-0.342850118875504,49.3225550150095
253730,-0.342642962932587,49.6350565135661
253840,-0.343471586704254,49.8433933435315
253950,-0.344714552164078,49.7913110092359
254050,-0.344507396221161,49.5308918449749
254160,-0.343471586704254,49.4267271763837
254270,-0.343678742647171,49.5829816720535
254380,-0.342228621244431,49.9996553319842
254490,-0.343678742647171,49.9996553319842
254600,-0.34388592839241,49.7913185020189
254710,-0.343471586704254,49.9475729976886
254820,-0.344093084335327,49.8434008363145
254930,-0.34388592839241,49.7913110092359
255040,-0.345128864049912,49.2183978392013
255150,-0.344300240278244,48.8538140063491
255260,-0.343678742647171,48.8538140063491
255360,-0.344300240278244,48.8017316720535
255470,-0.342850118875504,49.0621508363145
255580,-0.343471586704254,49.1663229976886
255690,-0.343678742647171,49.2704951590628
255800,-0.34305727481842,49.4267421619496
255910,-0.342850118875504,49.6871613262106
256020,-0.344300240278244,49.4788244962452
256130,-0.344093084335327,49.4267421619496
256240,-0.34388592839241,49.2184053319842
256350,-0.342021465301514,49.635071499132
256460,-0.344300240278244,49.5309068305408
256570,-0.34388592839241,49.5309068305408
256680,-0.343471586704254,49.4788244962452
256780,-0.344507396221161,49.0621583290974
256890,-0.343678742647171,49.2184128247672
257000,-0.343678742647171,49.114248156176
257110,-0.344093084335327,49.0100759948018
257220,-0.344093084335327,48.6454921619496
257330,-0.34243580698967,48.9059038334276
257440,-0.34388592839241,49.0100685020189
257550,-0.34388592839241,48.9579786749403
257660,-0.344714552164078,48.7496493377579
257770,-0.34305727481842,48.9058963406447
257880,-0.344507396221161,48.5933948420881
257990,-0.34388592839241,48.5413050150095
258090,-0.344093084335327,48.2288035164529
258200,-0.343264430761337,48.3850580121227
258310,-0.344093084335327,48.3850580121227
258420,-0.343678742647171,48.4371478392013
258530,-0.344093084335327,48.3329756778271
258640,-0.343471586704254,48.5413125077925
258750,-0.344507396221161,48.0725640063491
258860,-0.344093084335327,47.7079801734969
258970,-0.34305727481842,47.8121448420881
259080,-0.34305727481842,47.9683918449749
259190,-0.342850118875504,48.4371403464183
259300,-0.34305727481842,48.5413050150095
259410,-0.34388592839241,48.6975520178964
259510,-0.344507396221161,48.5413050150095
259620,-0.342850118875504,48.5413050150095
259730,-0.343471586704254,48.3850580121227
259840,-0.343264430761337,48.3329756778271
259950,-0.344300240278244,48.0725565135661
260060,-0.343471586704254,48.3329756778271
260170,-0.344093084335327,48.2808933435315
260280,-0.34388592839241,48.2808933435315
260390,-0.34388592839241,47.9163095106793
260500,-0.343471586704254,48.0204816720535
260610,-0.344093084335327,47.7079801734969
260720,-0.342850118875504,47.8121448420881
260820,-0.343678742647171,47.7600625077925
260930,-0.342850118875504,47.6558978392013
261040,-0.342642962932587,48.0204816720535
261150,-0.34243580698967,48.2808933435315
261260,-0.34388592839241,48.5413050150095
261370,-0.34243580698967,48.9058888478617
261480,-0.344507396221161,48.9579711821573
261590,-0.343678742647171,48.9579711821573
261700,-0.344921708106995,48.7496418449749
261810,-0.343264430761337,48.7496418449749
261920,-0.344093084335327,48.4892226807139
262030,-0.344093084335327,48.5933873493052
262140,-0.34305727481842,48.5413050150095
262240,-0.344507396221161,48.3329681850442
262350,-0.34243580698967,48.6454621908178
262460,-0.343678742647171,48.5412975222266
262570,-0.344093084335327,48.4371253608524
262680,-0.344300240278244,48.0725415280002
262790,-0.343678742647171,48.1246313550788
262900,-0.343264430761337,48.3329681850442
263010,-0.344714552164078,48.3329681850442
263120,-0.34305727481842,48.6454696836008
263230,-0.344093084335327,48.5412975222266
263340,-0.344300240278244,48.1767136893744
263450,-0.34305727481842,48.4371328536354
263550,-0.344921708106995,47.968384352192
263660,-0.343678742647171,47.6558903464183
263770,-0.343678742647171,47.2392241792705
263880,-0.34388592839241,47.0308873493052
263990,-0.344093084335327,46.6663035164529
264100,-0.344300240278244,46.6142211821573
264210,-0.345336049795151,46.5621313550788
264320,-0.34388592839241,46.4579591937046
264430,-0.343264430761337,46.5621238622958
264540,-0.342228621244431,47.187126859409
264650,-0.343264430761337,47.3954636893744
264760,-0.34243580698967,47.44754602367
264870,-0.343471586704254,47.2912990207832
264970,-0.34388592839241,47.6037930265568
265080,-0.343471586704254,47.6037930265568
265190,-0.344300240278244,47.3433738622958
265300,-0.34305727481842,47.6037930265568
265420,-0.343678742647171,47.5517106922612
265520,-0.34388592839241,47.5517106922612
265630,-0.34388592839241,47.2912915280002
265740,-0.344093084335327,46.9787900294436
265850,-0.34388592839241,47.0308723637392
265960,-0.343471586704254,47.0308723637392
266070,-0.344093084335327,47.1871193666261
266180,-0.34388592839241,47.2392017009217
266280,-0.344507396221161,46.9787825366607
266390,-0.343264430761337,47.0308648709563
266500,-0.343678742647171,46.9787825366607
266610,-0.343678742647171,46.7704531994783
266720,-0.344300240278244,46.6141987038085
266830,-0.343678742647171,46.5621163695129
266940,-0.343264430761337,46.7704531994783
267050,-0.344300240278244,46.5621163695129
267160,-0.344093084335327,46.5100340352173
267270,-0.343471586704254,46.4579517009217
267380,-0.342850118875504,46.4058693666261
267490,-0.343678742647171,46.0933753608524
267600,-0.343471586704254,45.9371283579656
267700,-0.343471586704254,45.7287990207832
267810,-0.343471586704254,45.7287990207832
267920,-0.344921708106995,45.6767166864876
268030,-0.344714552164078,45.624634352192
268140,-0.342850118875504,45.7808813550788
268250,-0.34388592839241,45.7287915280002
268360,-0.345128864049912,44.9996238622958
268470,-0.34243580698967,45.3121178680695
268580,-0.34243580698967,45.6767017009217
268690,-0.344300240278244,45.4683648709563
268800,-0.34388592839241,45.5204472052519
268910,-0.34305727481842,45.7287840352173
269010,-0.344300240278244,45.9371133723997
269120,-0.343678742647171,46.0933678680695
269230,-0.344093084335327,45.9891957066953
269340,-0.344507396221161,45.9371133723997
269450,-0.343678742647171,45.7287840352173
269560,-0.344921708106995,45.3642002023651
269670,-0.344507396221161,45.1558633723997
269780,-0.344300240278244,44.8433618738431
269890,-0.344300240278244,44.4787780409909
270000,-0.343264430761337,44.7391972052519
270110,-0.34305727481842,44.9996163695129
270220,-0.34305727481842,45.2079531994783
270330,-0.344093084335327,44.6871148709563
270430,-0.343471586704254,44.8954517009217
270540,-0.345750361680985,44.4267031994783
270650,-0.343471586704254,44.4267031994783
270760,-0.343471586704254,44.6871223637392
270870,-0.34388592839241,44.6350325366607
270980,-0.343471586704254,44.6871148709563
271090,-0.343264430761337,44.8954517009217
271200,-0.34388592839241,44.9475340352173
271310,-0.343678742647171,44.6350400294436
271420,-0.343471586704254,44.7392121908178
271530,-0.344300240278244,44.6350475222266
271640,-0.342642962932587,45.1558783579656
271750,-0.344093084335327,44.8954591937046
271850,-0.343264430761337,45.2079606922612
271960,-0.343264430761337,45.364215187931
272070,-0.344300240278244,45.3121328536354
272180,-0.342642962932587,45.4683798565222
272290,-0.344921708106995,45.2600505193398
272400,-0.342850118875504,45.4683798565222
272510,-0.344300240278244,45.4162975222266
272620,-0.34305727481842,45.5204621908178
272730,-0.345336049795151,45.3121253608524
272840,-0.343471586704254,45.4683798565222
272950,-0.343264430761337,45.4162975222266
273060,-0.344093084335327,45.1558783579656
273160,-0.34305727481842,45.10379602367
273270,-0.344093084335327,44.843376859409
273380,-0.343264430761337,44.9996313550788
273490,-0.344300240278244,45.0517136893744
273600,-0.345128864049912,44.4788005193398
273710,-0.343678742647171,44.4267181850442
273820,-0.342642962932587,44.582965187931
273930,-0.343264430761337,44.843384352192
274040,-0.34388592839241,44.7392121908178
274150,-0.34305727481842,44.9996313550788
274260,-0.345543205738068,44.582965187931
274370,-0.344507396221161,44.4267181850442
274480,-0.343264430761337,44.4788005193398
274580,-0.34388592839241,44.5308828536354
274690,-0.343264430761337,44.4267181850442
274800,-0.343264430761337,44.5308828536354
274910,-0.34388592839241,44.2704636893744
275020,-0.343471586704254,44.062134352192
275130,-0.343678742647171,43.7496403464183
275240,-0.343264430761337,43.9058948420881
275350,-0.34305727481842,43.7496478392013
275460,-0.34243580698967,44.2704786749403
275570,-0.344507396221161,44.0621418449749
275680,-0.342850118875504,44.5829726807139
275790,-0.344507396221161,44.2704711821573
275890,-0.343678742647171,44.3746433435315
276000,-0.34305727481842,44.6350625077925
276110,-0.343678742647171,44.4788155049057
276220,-0.344093084335327,44.5829801734969
276330,-0.344300240278244,44.1142316720535
276440,-0.344300240278244,43.9579771763837
276550,-0.344300240278244,43.9058948420881
276660,-0.342850118875504,44.2704786749403
276770,-0.34388592839241,44.2183888478617
276880,-0.343471586704254,44.1663065135661
276990,-0.344921708106995,44.1142241792705
277100,-0.344300240278244,43.8017226807139
277210,-0.34160715341568,44.4267256778271
277310,-0.342850118875504,44.7913095106793
277420,-0.342850118875504,44.8433918449749
277530,-0.343471586704254,45.2079756778271
277640,-0.34388592839241,45.1558858507486
277750,-0.344093084335327,45.0517136893744
277860,-0.344300240278244,44.9475490207832
277970,-0.344714552164078,44.7913020178964
278080,-0.343678742647171,44.9475565135661
278190,-0.344093084335327,45.2600580121227
278300,-0.343264430761337,45.4163125077925
278410,-0.342850118875504,45.5204771763837
278520,-0.343264430761337,45.2600580121227
278620,-0.344093084335327,45.0517211821573
278730,-0.34305727481842,44.8954741792705
278840,-0.34388592839241,44.7913020178964
278950,-0.343264430761337,44.9475565135661
279060,-0.343471586704254,44.9475565135661
279170,-0.344507396221161,44.8954741792705
279280,-0.345128864049912,44.3746433435315
279390,-0.343678742647171,44.3746433435315
279500,-0.344300240278244,44.2704786749403
279610,-0.34388592839241,44.2704786749403
279720,-0.344093084335327,44.2704786749403
279830,-0.34388592839241,44.2704786749403
279940,-0.343264430761337,44.3225610092359
280040,-0.343264430761337,44.5308978392013
280150,-0.34305727481842,44.7392346691667
280260,-0.344093084335327,44.8433993377579
280370,-0.343471586704254,44.7913170034623
280480,-0.34305727481842,44.9475640063491
280590,-0.34388592839241,44.8954741792705
280700,-0.34305727481842,45.2079756778271
280810,-0.343678742647171,45.2079756778271
280920,-0.344300240278244,44.9475565135661
281030,-0.34388592839241,45.0517211821573
281140,-0.34305727481842,45.3121403464183
281250,-0.343471586704254,45.3121403464183
281350,-0.344300240278244,44.9475565135661
281460,-0.344921708106995,44.6350550150095
281570,-0.343678742647171,44.5829726807139
281680,-0.344921708106995,44.2183888478617
281790,-0.344921708106995,43.8538050150095
281900,-0.343264430761337,44.2704711821573
282010,-0.343471586704254,44.5829726807139
282120,-0.343678742647171,44.3746433435315
282230,-0.343264430761337,44.5308978392013
282340,-0.344093084335327,44.7913095106793
282450,-0.342642962932587,44.7392271763837
282560,-0.343471586704254,44.4788155049057
282670,-0.344714552164078,44.3746508363145
282770,-0.343471586704254,44.4788229976886
282880,-0.344300240278244,44.166321499132
282990,-0.344093084335327,44.2184038334276
283100,-0.342642962932587,44.4788155049057
283210,-0.342850118875504,44.7913170034623
283320,-0.345128864049912,44.6350700005754
283430,-0.34243580698967,44.9475640063491
283540,-0.344921708106995,44.9475640063491
283650,-0.34388592839241,45.1038110092359
283760,-0.34305727481842,45.4163125077925
283870,-0.342850118875504,45.7808963406447
283980,-0.343264430761337,45.7808963406447
284080,-0.342642962932587,45.8850610092359
284190,-0.34305727481842,45.8850610092359
284300,-0.342642962932587,46.2496448420881
284410,-0.342850118875504,46.4058918449749
284520,-0.343264430761337,47.0308948420881
284630,-0.342850118875504,47.1871418449749
284740,-0.343678742647171,47.1350595106793
284850,-0.344093084335327,47.0829771763837
284960,-0.34388592839241,46.9788050150095
285070,-0.344300240278244,46.7183858507486
285180,-0.34305727481842,46.9267226807139
285290,-0.344093084335327,46.8225505193398
285400,-0.344300240278244,46.6142136893744
285500,-0.34388592839241,46.7183783579656
285610,-0.343678742647171,46.4579666864876
285720,-0.343471586704254,46.6142211821573
285830,-0.343264430761337,46.6142211821573
285940,-0.342642962932587,46.7704681850442
286050,-0.345336049795151,46.5100490207832
286160,-0.34388592839241,46.1975475222266
286270,-0.344507396221161,46.3017121908178
286380,-0.344093084335327,45.9892106922612
286490,-0.343678742647171,46.145465187931
286600,-0.34388592839241,45.9371283579656
286710,-0.343471586704254,46.405884352192
286810,-0.344093084335327,46.2496298565222
286920,-0.344714552164078,45.88504602367
287030,-0.34388592839241,45.9371283579656
287140,-0.34388592839241,45.7287915280002
287250,-0.34305727481842,45.9892106922612
287360,-0.34388592839241,45.8329561965914
287470,-0.343678742647171,45.9892106922612
287580,-0.344714552164078,46.0933753608524
287690,-0.343678742647171,46.0933753608524
287800,-0.34305727481842,45.9892106922612
287910,-0.343678742647171,45.88504602367
288020,-0.343471586704254,45.9892181850442
288130,-0.343264430761337,45.9371358507486
288230,-0.34388592839241,46.3538020178964
288340,-0.343264430761337,46.6663035164529
288450,-0.342642962932587,46.8225505193398
288560,-0.344507396221161,46.6663035164529
288670,-0.344093084335327,46.4579666864876
288780,-0.344300240278244,46.1975475222266
288890,-0.343678742647171,46.2496373493052
289000,-0.344507396221161,45.9892181850442
289110,-0.343264430761337,46.0933828536354
289220,-0.343471586704254,46.0413005193398
289330,-0.343678742647171,45.8850535164529
289440,-0.344300240278244,45.4163050150095
289540,-0.342228621244431,45.9892256778271
289650,-0.342850118875504,45.9892256778271
289760,-0.344714552164078,45.9371433435315
289870,-0.344507396221161,45.7288065135661
289980,-0.34305727481842,45.7288065135661
290090,-0.343471586704254,45.7808888478617
290210,-0.342021465301514,46.3017271763837
290310,-0.344093084335327,46.3538095106793
290420,-0.344093084335327,46.4058918449749
290530,-0.344300240278244,46.4058918449749
290640,-0.344093084335327,46.0933903464183
290750,-0.344507396221161,45.9371433435315
290860,-0.342850118875504,46.0933903464183
290960,-0.34305727481842,46.5621388478617
291070,-0.344507396221161,46.5100565135661
291180,-0.343264430761337,46.0933903464183
291290,-0.344300240278244,45.7288065135661
291400,-0.343678742647171,45.5204771763837
291510,-0.343471586704254,45.5204771763837
291620,-0.344714552164078,45.3121478392013
291730,-0.34388592839241,45.3642301734969
291840,-0.34305727481842,45.6767316720535
291950,-0.342021465301514,46.3538170034623
292060,-0.343264430761337,46.4579816720535
292170,-0.343471586704254,46.6142361677232
292270,-0.34388592839241,46.4579816720535
292380,-0.344093084335327,46.1454801734969
292490,-0.343471586704254,46.0933978392013
292600,-0.343678742647171,46.1975700005754
292710,-0.342850118875504,46.2496523348711
292820,-0.343471586704254,46.3538244962452
292930,-0.344300240278244,46.0934053319842
293040,-0.344507396221161,45.8329861677232
293150,-0.344093084335327,45.9371508363145
293260,-0.343678742647171,46.3017346691667
293370,-0.34305727481842,46.4579816720535
293480,-0.344714552164078,46.3538170034623
293590,-0.344921708106995,46.0934053319842
293690,-0.343678742647171,46.1975774933584
293800,-0.34305727481842,46.4059143233238
293910,-0.34305727481842,46.4579966576194
294020,-0.343264430761337,46.4579966576194
294130,-0.344093084335327,46.1975774933584
294240,-0.34305727481842,46.4579966576194
294350,-0.344093084335327,46.3017421619496
294460,-0.343678742647171,46.1454951590628
294570,-0.344093084335327,46.0934128247672
294680,-0.34305727481842,46.0934128247672
294790,-0.34388592839241,46.0413229976886
294900,-0.344507396221161,45.989240663393
295000,-0.342228621244431,46.4059143233238
295110,-0.343264430761337,46.3538319890282
295220,-0.342850118875504,46.510078991915
295330,-0.341399997472763,47.2392466576194
295440,-0.34243580698967,47.8642421619496
295550,-0.344093084335327,47.7600700005754
295660,-0.344300240278244,47.9163170034623
295770,-0.34388592839241,48.1767286749403
295880,-0.343471586704254,48.1246463406447
295990,-0.343678742647171,48.0725640063491
296100,-0.34305727481842,48.2288110092359
296210,-0.344300240278244,47.9683918449749
296320,-0.34388592839241,48.0204741792705
296420,-0.344300240278244,47.6038080121227
296530,-0.34388592839241,47.4996358507486
296640,-0.34305727481842,47.9163020178964
296750,-0.343264430761337,47.968384352192
296860,-0.34388592839241,48.0725490207832
296970,-0.343678742647171,48.1767211821573
297080,-0.34388592839241,47.8642196836008
297190,-0.344300240278244,47.4996358507486
297300,-0.344300240278244,47.707965187931
297410,-0.343471586704254,47.4475535164529
297520,-0.344093084335327,47.6558828536354
297630,-0.344507396221161,47.4996358507486
297730,-0.343678742647171,47.3433888478617
297840,-0.34305727481842,47.2913065135661
297950,-0.344714552164078,46.9267226807139
298060,-0.344093084335327,46.5621388478617
298170,-0.344300240278244,46.2496373493052
298280,-0.34388592839241,45.9371358507486
298390,-0.343264430761337,45.8329711821573
298500,-0.344300240278244,45.5725520178964
298610,-0.343678742647171,45.3642226807139
298720,-0.344921708106995,45.0517211821573
298830,-0.343264430761337,45.2600580121227
298940,-0.342850118875504,45.5204771763837
299050,-0.34388592839241,45.6246418449749
299150,-0.344300240278244,45.3121403464183
299270,-0.343471586704254,45.4683948420881
299370,-0.344093084335327,45.5204771763837
299480,-0.342642962932587,45.8329786749403
299590,-0.343678742647171,45.8329786749403
299700,-0.345336049795151,45.3642226807139
299810,-0.344093084335327,45.1558858507486
299920,-0.343264430761337,44.9996388478617
300030,-0.343264430761337,45.5204771763837
300140,-0.344300240278244,45.4163125077925
300250,-0.343678742647171,45.6246493377579
300360,-0.343264430761337,45.8329861677232
300460,-0.343471586704254,45.8850685020189
300570,-0.344093084335327,45.8329861677232
300680,-0.344714552164078,45.5204846691667
300790,-0.345128864049912,45.2600729976886
300900,-0.343678742647171,45.5204921619496
301010,-0.343471586704254,45.6246643233238
301120,-0.343678742647171,45.6767541504023
301230,-0.343264430761337,45.6246718161067
301340,-0.343264430761337,45.7809263117765
301450,-0.344507396221161,45.5725894818111
301560,-0.343264430761337,45.9371733146633
301670,-0.343678742647171,45.9371733146633
301780,-0.343264430761337,45.8850909803677
301880,-0.344714552164078,45.6246718161067
301990,-0.343678742647171,45.5725894818111
302100,-0.34388592839241,45.4163349861414
302210,-0.343264430761337,45.5725894818111
302320,-0.342850118875504,45.6767541504023
302430,-0.343678742647171,45.4163424789243
302540,-0.343678742647171,45.6246793088897
302650,-0.342850118875504,45.9371808074463
302760,-0.344714552164078,45.8330161388551
302870,-0.344093084335327,45.7288439774809
302980,-0.342850118875504,46.1455101446287
303090,-0.34305727481842,46.1975924789243
303190,-0.342228621244431,46.5100939774809
303300,-0.343471586704254,46.5621763117765
303410,-0.34305727481842,46.8746778103331
303520,-0.34243580698967,46.8225879832545
303630,-0.343678742647171,46.6142586460721
303740,-0.344093084335327,46.7705056489589
303850,-0.343471586704254,47.0309248132199
303960,-0.344507396221161,46.6663409803677
304070,-0.342642962932587,46.8746703175501
304180,-0.343264430761337,46.5621688189935
304290,-0.343264430761337,46.7705056489589
304400,-0.343678742647171,46.8746778103331
304510,-0.34305727481842,47.1871793088897
304610,-0.343264430761337,47.3955161388551
304720,-0.343678742647171,47.6038529688204
304830,-0.344093084335327,47.2913514702638
304940,-0.344093084335327,47.0309323060029
305050,-0.344507396221161,47.0309323060029
305160,-0.342850118875504,47.1350969745941
305270,-0.34305727481842,47.4475984731507
305380,-0.34388592839241,47.3955086460721
305490,-0.34305727481842,47.4996733146633
305600,-0.342642962932587,48.0205041504023
305710,-0.344507396221161,47.8642571475155
305820,-0.343678742647171,47.7080101446287
305920,-0.34305727481842,47.4475909803677
306030,-0.343678742647171,47.3434263117765
306140,-0.34388592839241,47.2392541504023
306250,-0.34305727481842,47.4475909803677
306360,-0.344300240278244,47.3955086460721
306470,-0.343264430761337,47.4475909803677
306580,-0.34388592839241,47.3955011532892
306690,-0.345543205738068,46.7184158218804
306800,-0.344921708106995,46.3538319890282
306910,-0.343471586704254,46.5621688189935
307020,-0.343264430761337,46.8746703175501
307130,-0.343678742647171,46.9788424789243
307240,-0.343471586704254,47.0309248132199
307340,-0.34388592839241,46.8225879832545
307450,-0.34388592839241,47.030917320437
307560,-0.343264430761337,47.4475834875848
307670,-0.34388592839241,47.3954936605062
307780,-0.344507396221161,47.030909827654
307890,-0.343678742647171,46.8746628247672
308000,-0.34388592839241,46.7184083290974
308110,-0.343678742647171,46.8225804904716
308220,-0.342850118875504,46.8746628247672
308330,-0.343678742647171,46.9788349861414
308440,-0.344921708106995,46.6663334875848
308550,-0.34388592839241,46.7184158218804
308650,-0.343471586704254,46.6142511532892
308760,-0.34305727481842,46.8225879832545
308870,-0.343471586704254,47.0830071475155
308980,-0.344093084335327,46.6142511532892
309090,-0.343471586704254,46.5621688189935
309200,-0.344300240278244,46.1975849861414
309310,-0.34305727481842,45.7809188189935
309420,-0.34305727481842,45.6246718161067
309530,-0.344300240278244,45.5725894818111
309640,-0.344093084335327,45.6246718161067
309750,-0.343471586704254,45.7288439774809
309860,-0.343264430761337,45.7809263117765
309970,-0.344093084335327,45.6767541504023
310070,-0.344300240278244,45.3642526518457
310180,-0.344300240278244,45.3642526518457
310290,-0.342850118875504,45.6246718161067
310400,-0.344093084335327,45.6767541504023
310510,-0.343264430761337,45.8330086460721
310620,-0.34305727481842,45.8330086460721
310730,-0.343678742647171,45.7288439774809
310840,-0.342642962932587,46.0413454760375
310950,-0.344093084335327,45.9371733146633
311060,-0.343264430761337,46.0934278103331
311170,-0.343678742647171,46.2496823060029
311280,-0.343264430761337,46.5101014702638
311380,-0.34243580698967,46.7705131417419
311490,-0.343678742647171,46.874685303116
311600,-0.344300240278244,46.9267676374116
311710,-0.34243580698967,47.2392616431853
311820,-0.34388592839241,47.0309248132199
311930,-0.344507396221161,47.0830071475155
312040,-0.343264430761337,47.2913439774809
312150,-0.343471586704254,47.4996808074463
312260,-0.342642962932587,47.8121823060029
312370,-0.343471586704254,47.7600999717073
312480,-0.343471586704254,47.9684368016726
312590,-0.34305727481842,48.1246838045594
312700,-0.343471586704254,48.4892676374116
312800,-0.344093084335327,48.2809308074463
312910,-0.344093084335327,47.9684293088897
313020,-0.342642962932587,48.2809308074463
313130,-0.343264430761337,48.5413499717073
313240,-0.343678742647171,48.4892676374116
313350,-0.344300240278244,48.437185303116
313460,-0.34305727481842,48.3330206345248
313570,-0.343471586704254,48.3851029688204
313680,-0.342850118875504,49.0101059659336
313790,-0.344093084335327,49.0101059659336
313900,-0.343471586704254,48.958023631638
314010,-0.34305727481842,49.0101059659336
314110,-0.344714552164078,48.9059412973424
314220,-0.343264430761337,49.0101059659336
314330,-0.343678742647171,48.9059412973424
314440,-0.342850118875504,49.0621883002292
314550,-0.343264430761337,49.2705251301946
314660,-0.343678742647171,49.5309442944556
314770,-0.344093084335327,49.7913559659336
314880,-0.343678742647171,49.7913559659336
314990,-0.343264430761337,49.8434383002292
315100,-0.342021465301514,50.260104467377
315210,-0.344507396221161,49.9476029688204
315320,-0.342642962932587,50.1038499717072
315430,-0.34305727481842,50.4684338045595
315530,-0.343264430761337,50.4684338045595
315640,-0.344921708106995,50.1559323060029
315750,-0.34388592839241,49.9996778103331
315860,-0.34388592839241,50.2080071475155
315970,-0.34388592839241,50.155917320437
316080,-0.34388592839241,50.155917320437
316190,-0.343471586704254,50.1038349861414
316300,-0.344714552164078,49.6350864846979
316410,-0.343264430761337,49.7392511532892
316520,-0.343678742647171,49.7392511532892
316630,-0.344507396221161,49.3225849861414
316740,-0.34388592839241,49.5309143233238
316840,-0.344714552164078,49.374667320437
