time,raw,transformed
6160,-0.341192841529846,0
6270,-0.340157032012939,0
6380,-0.340985685586929,0
6490,-0.341192841529846,0
6600,-0.340571343898773,0
6710,-0.341399997472763,0
6820,-0.342850118875504,0
6930,-0.340985685586929,0
7030,-0.34160715341568,0
7140,-0.34077849984169,52.4988311454801
7250,-0.340571343898773,47.2721518325131
7360,-0.341814309358597,51.3882561680293
7470,-0.34077849984169,53.8456005356032
7580,-0.342021465301514,56.1218827619003
7690,-0.341399997472763,55.2375080493789
7800,-0.34160715341568,53.570841382712
7910,-0.34160715341568,52.1002531474174
8020,-0.341192841529846,52.38033257064
8130,-0.342642962932587,63.157743305207
8240,-0.341814309358597,61.9998705259518
8340,-0.34305727481842,65.0791176997808
8450,-0.342642962932587,62.878533579495
8560,-0.342021465301514,61.9562871835719
8670,-0.341814309358597,61.458108550922
8780,-0.341192841529846,61.9997602320959
8890,-0.341192841529846,62.4997463993311
9000,-0.341399997472763,62.6540619791154
9110,-0.341192841529846,63.0949669291551
9220,-0.341192841529846,63.505464641262
9330,-0.34160715341568,63.3330536041106
9440,-0.34077849984169,64.247047567633
9550,-0.34160715341568,64.0622377538543
9660,-0.341814309358597,63.6361093370703
9760,-0.341192841529846,63.9703237854002
9870,-0.341192841529846,64.2854402652522
9980,-0.340985685586929,64.8145262052989
10090,-0.342850118875504,63.2880020788519
10200,-0.341399997472763,63.3769037887111
10310,-0.340364187955856,59.5659199797975
10420,-0.34160715341568,59.4229236983349
10530,-0.342228621244431,58.7240635201682
10640,-0.342021465301514,58.2416285276916
10750,-0.342642962932587,57.2449458848421
10860,-0.342021465301514,56.8180560655527
10970,-0.34077849984169,57.4357820444247
11070,-0.340571343898773,58.1938707512285
11180,-0.342021465301514,57.7740393275034
11290,-0.341399997472763,57.8524594699275
11400,-0.340985685586929,58.2416435837884
11510,-0.341399997472763,58.3075748353905
11620,-0.340985685586929,58.6725729964424
11730,-0.341814309358597,58.431829886487
11840,-0.342021465301514,58.055036753461
11950,-0.34160715341568,57.9770929010126
12060,-0.34160715341568,57.9019833704719
12170,-0.341192841529846,58.1042755175445
12280,-0.341814309358597,57.8946203554588
12390,-0.340571343898773,58.487952117561
12490,-0.34160715341568,58.4092761277934
12600,-0.34243580698967,57.8203950644612
12710,-0.342228621244431,57.3769403321499
12820,-0.34160715341568,57.3199907900389
12930,-0.34243580698967,56.7764419255594
13040,-0.341814309358597,56.6104651967023
13150,-0.340985685586929,56.9229577482777
13260,-0.342021465301514,56.6432431435468
13370,-0.342021465301514,56.3718782285119
13480,-0.341814309358597,56.2216143027782
13590,-0.341814309358597,56.0757058531546
13700,-0.341814309358597,55.9339662163758
13800,-0.341814309358597,55.7962192454242
13910,-0.342021465301514,55.5554633369601
14020,-0.341192841529846,55.7427904639406
14130,-0.34077849984169,56.1329652565191
14240,-0.340985685586929,56.4101588004195
14350,-0.34243580698967,55.9715568731485
14460,-0.34160715341568,55.9439531309163
14570,-0.342850118875504,55.3253401092724
14680,-0.340985685586929,55.5987216401547
14790,-0.342228621244431,55.2883583245717
14900,-0.341399997472763,55.3655169398732
15010,-0.340985685586929,55.6284067460822
15120,-0.342021465301514,55.4215800845162
15220,-0.342228621244431,55.1281048024802
15330,-0.340157032012939,55.7465051864832
15440,-0.341399997472763,55.8138505466839
15550,-0.341814309358597,55.7028169918809
15660,-0.341192841529846,55.8565388852285
15770,-0.341814309358597,55.7475208222342
15880,-0.340985685586929,55.9827981580865
15990,-0.341399997472763,56.0438465977121
16100,-0.339535564184189,56.8560716321978
16210,-0.34243580698967,56.492849489139
16320,-0.34160715341568,56.4646922469268
16430,-0.34243580698967,56.1132366688308
16530,-0.341814309358597,56.0094939043502
16640,-0.342021465301514,55.8285897799364
16750,-0.34160715341568,55.8083599732142
16860,-0.342850118875504,55.3223375234119
16970,-0.342021465301514,55.1537320865378
17080,-0.341399997472763,55.2169447011657
17190,-0.341192841529846,55.3543309649426
17300,-0.342021465301514,55.1903257500991
17410,-0.341814309358597,55.1034373417208
17520,-0.342021465301514,54.9449454988104
17630,-0.339535564184189,55.6602625202406
17750,-0.342021465301514,55.499529168053
17850,-0.341399997472763,55.5554428439389
17950,-0.342228621244431,55.3280503076962
18060,-0.34160715341568,55.3145777478201
18170,-0.342021465301514,55.1627508657325
18280,-0.342021465301514,55.0136351779681
18390,-0.341399997472763,55.0713747442148
18500,-0.34077849984169,55.3305357123784
18610,-0.34077849984169,55.5851895332704
18720,-0.34160715341568,55.5701971124778
18830,-0.342228621244431,55.3582266789819
18940,-0.340571343898773,55.6713591864266
19050,-0.341399997472763,55.72066042153
19160,-0.341814309358597,55.6409376786738
19260,-0.342228621244431,55.4353898994578
19370,-0.342021465301514,55.2962620628725
19480,-0.341399997472763,55.3470095758899
19590,-0.34160715341568,55.3349052141579
19700,-0.342021465301514,55.1999203231338
19810,-0.342228621244431,55.0060293395648
19920,-0.341814309358597,54.9363277800303
20030,-0.342228621244431,54.747525659824
20140,-0.34160715341568,54.6273360122835
20250,-0.34243580698967,53.966275659824
20360,-0.34160715341568,53.7859911885133
20470,-0.34305727481842,53.2451291290876
20580,-0.342021465301514,52.8244567172025
20680,-0.341399997472763,52.8244567172025
20790,-0.341399997472763,53.2451291290876
20900,-0.341399997472763,53.1249394815471
21010,-0.341814309358597,53.0648446577768
21120,-0.34160715341568,52.8244567172025
21230,-0.341192841529846,52.6441636003984
21340,-0.341399997472763,52.7643532479389
21450,-0.342228621244431,52.3436808360538
21560,-0.34160715341568,52.4638704835943
21670,-0.341399997472763,52.4638704835943
21780,-0.341399997472763,52.5239653073646
21890,-0.341192841529846,52.6441549549051
22000,-0.342642962932587,52.22348254302
22100,-0.34160715341568,52.5239653073646
22210,-0.34243580698967,52.3436721905605
22320,-0.341814309358597,52.7042497786754
22430,-0.34160715341568,53.00473254302
22540,-0.341192841529846,53.245111838101
22650,-0.343264430761337,52.8244394262159
22760,-0.341814309358597,52.6441549549051
22870,-0.342228621244431,52.3436808360538
22980,-0.341814309358597,52.2234911885133
23090,-0.34243580698967,51.8629136003984
23200,-0.341814309358597,51.6826291290876
23310,-0.34160715341568,51.6826291290876
23410,-0.341814309358597,51.382146364743
23520,-0.342228621244431,51.2018618934322
23630,-0.340364187955856,51.6225343053173
23740,-0.341192841529846,51.6225343053173
23850,-0.342021465301514,51.3821550102363
23960,-0.34243580698967,50.9614825983511
24070,-0.341399997472763,51.3821550102363
24180,-0.340985685586929,51.5023446577768
24290,-0.340985685586929,51.3220515409727
24400,-0.339949876070023,51.8028187766281
24510,-0.342642962932587,51.6826204835943
24620,-0.34160715341568,51.8028101311348
24730,-0.34160715341568,52.1032928954794
24830,-0.34160715341568,52.22348254302
24940,-0.342642962932587,51.682611838101
25050,-0.34243580698967,51.1417411331821
25160,-0.340985685586929,51.4422152520334
25270,-0.342228621244431,51.2018359569524
25380,-0.340985685586929,51.2018359569524
25490,-0.34243580698967,50.9013531926078
25600,-0.341399997472763,50.7811635450672
25710,-0.34160715341568,50.8412583688375
25820,-0.341814309358597,50.9013531926078
25930,-0.339949876070023,51.3821204282632
26040,-0.341192841529846,51.5023100758037
26140,-0.341192841529846,51.5023100758037
26250,-0.34160715341568,51.562404899574
26360,-0.34243580698967,51.021534194655
26470,-0.34160715341568,51.021534194655
26580,-0.342642962932587,50.9614393708847
26690,-0.34160715341568,51.1417238421955
26800,-0.34243580698967,50.9013359016212
26910,-0.340985685586929,51.3220083135063
27020,-0.342850118875504,51.0215255491617
27130,-0.343264430761337,50.3604738421955
27240,-0.34077849984169,50.7210514303104
27350,-0.342021465301514,50.7210514303104
27460,-0.341192841529846,50.9013359016212
27560,-0.34243580698967,50.7210427848171
27670,-0.341814309358597,50.7210427848171
27780,-0.34160715341568,50.7811376085874
27890,-0.342021465301514,50.7811376085874
28000,-0.340985685586929,50.8412324323577
28110,-0.341399997472763,50.6609393155536
28220,-0.340157032012939,50.9013272561279
28330,-0.342228621244431,50.9614307253915
28440,-0.342021465301514,50.8412410778509
28550,-0.342228621244431,51.021534194655
28660,-0.342021465301514,50.7210600758037
28770,-0.342850118875504,50.5407669589996
28870,-0.34305727481842,50.0599997233442
28980,-0.342228621244431,49.6994307807226
29090,-0.341399997472763,49.8797152520334
29200,-0.342228621244431,49.8797152520334
29310,-0.342642962932587,49.1585600758037
29420,-0.342228621244431,48.9181807807226
29530,-0.34160715341568,48.9782756044929
29640,-0.342021465301514,48.7378963094118
29750,-0.34160715341568,48.7979911331821
29860,-0.341814309358597,48.557611838101
29970,-0.340985685586929,48.6778014856416
30080,-0.342021465301514,47.9566549549051
30190,-0.342642962932587,47.8965601311348
30290,-0.342642962932587,47.5960773667902
30400,-0.341192841529846,47.9566549549051
30510,-0.341814309358597,47.9566549549051
30620,-0.341399997472763,48.1369394262159
30730,-0.34243580698967,47.8965514856416
30840,-0.340571343898773,48.557611838101
30950,-0.342228621244431,48.4975170143308
31060,-0.34160715341568,48.4374221905605
31170,-0.342642962932587,48.0167497786754
31280,-0.341814309358597,48.0768446024456
31390,-0.342228621244431,47.9566549549051
31500,-0.341192841529846,48.1970342499862
31600,-0.34243580698967,47.3556894262159
31710,-0.34305727481842,47.0552066618713
31820,-0.341814309358597,46.9350170143308
31930,-0.342850118875504,46.7547238975267
32040,-0.341814309358597,46.6946290737564
32150,-0.34160715341568,46.814818721297
32260,-0.341399997472763,46.9951031926078
32370,-0.342228621244431,46.7547238975267
32480,-0.342021465301514,46.3941463094118
32590,-0.34160715341568,46.1537583688375
32700,-0.341192841529846,46.273948016378
32810,-0.342228621244431,46.273948016378
32920,-0.342642962932587,45.6729824876888
33020,-0.342228621244431,45.4326031926078
33130,-0.343264430761337,45.0119307807226
33240,-0.341192841529846,45.3124048995739
33350,-0.341814309358597,45.3724997233442
33460,-0.34305727481842,44.8917324876888
33570,-0.342850118875504,44.5311548995739
33680,-0.341399997472763,44.7114393708847
33790,-0.342021465301514,44.771534194655
33900,-0.34160715341568,44.8316290184253
34010,-0.343264430761337,44.5311462540807
34120,-0.342228621244431,44.3508617827699
34230,-0.34160715341568,44.5912497233442
34330,-0.34243580698967,44.3508617827699
34440,-0.341814309358597,44.7114393708847
34550,-0.34243580698967,44.5912410778509
34660,-0.341399997472763,44.5912410778509
34770,-0.341192841529846,44.6513359016212
34880,-0.34160715341568,44.5912410778509
34990,-0.341814309358597,44.5912410778509
35100,-0.34243580698967,44.3508531372766
35210,-0.34160715341568,44.2306634897361
35320,-0.342021465301514,44.0503790184253
35430,-0.342642962932587,43.9301807253915
35540,-0.34160715341568,43.9301807253915
35650,-0.342642962932587,43.5696031372766
35750,-0.34243580698967,43.269120372932
35860,-0.341399997472763,43.2090255491617
35970,-0.341814309358597,43.4494134897361
36080,-0.34243580698967,43.2090255491617
36190,-0.34160715341568,43.4494134897361
36300,-0.34160715341568,43.5095083135063
36410,-0.342642962932587,43.2090255491617
36520,-0.342228621244431,42.9085514303104
36630,-0.34160715341568,43.3893186659658
36740,-0.342021465301514,43.3292238421955
36850,-0.343471586704254,42.9686462540807
36960,-0.342642962932587,42.7282583135063
37060,-0.341192841529846,43.0888359016212
37170,-0.342021465301514,43.0287410778509
37280,-0.342642962932587,42.7282583135063
37390,-0.342850118875504,42.4277755491617
37500,-0.341814309358597,42.5479651967023
37610,-0.340985685586929,42.3676720798982
37720,-0.34243580698967,42.0070944917833
37830,-0.34305727481842,41.7066117274387
37940,-0.342021465301514,41.8268100204725
38050,-0.34243580698967,41.5263272561279
38160,-0.34243580698967,41.1056548442428
38270,-0.34243580698967,40.6849824323577
38380,-0.342021465301514,40.0840255491617
38480,-0.342021465301514,40.2643186659658
38590,-0.34160715341568,40.2643186659658
38700,-0.341814309358597,40.2042238421955
38810,-0.342642962932587,39.9037410778509
38920,-0.342642962932587,39.9037410778509
39030,-0.342228621244431,39.9638445471145
39140,-0.342228621244431,39.6032756044929
39250,-0.34243580698967,39.5431721352293
39360,-0.34243580698967,39.1224997233442
39470,-0.342642962932587,39.0624048995739
39580,-0.342642962932587,38.7018273114591
39690,-0.34243580698967,38.4614393708847
39790,-0.342642962932587,38.2210514303104
39900,-0.342228621244431,37.5599997233442
40010,-0.342642962932587,37.1393273114591
40120,-0.34243580698967,36.7787497233442
40230,-0.342228621244431,36.5984652520334
40340,-0.34077849984169,37.0792411331821
40450,-0.343264430761337,36.5984738975267
40560,-0.340364187955856,37.2595342499862
40670,-0.342228621244431,37.0792497786754
40780,-0.34160715341568,37.3196377192497
40890,-0.341814309358597,37.0792584241687
41000,-0.340985685586929,37.6201204835943
41110,-0.342021465301514,37.9806980717092
41210,-0.342642962932587,37.4398273667902
41320,-0.341814309358597,37.4999221905605
41430,-0.342850118875504,37.0191549549051
41540,-0.342228621244431,37.0792584241687
41650,-0.341814309358597,37.0792584241687
41760,-0.341814309358597,37.0191636003984
41870,-0.343264430761337,36.6585860122835
41980,-0.34243580698967,36.2379136003984
42090,-0.342228621244431,35.9975343053173
42200,-0.342642962932587,35.2763791290876
42310,-0.34243580698967,35.216275659824
42420,-0.342021465301514,35.216275659824
42520,-0.342228621244431,35.216275659824
42630,-0.34305727481842,34.9157928954794
42740,-0.340985685586929,35.4566549549051
42850,-0.342228621244431,35.6970428954794
42960,-0.34160715341568,35.8773273667902
43070,-0.341399997472763,35.8773273667902
43180,-0.34243580698967,35.8172238975267
43290,-0.341192841529846,36.2378963094118
43400,-0.342021465301514,36.2979911331821
43510,-0.341814309358597,36.2378963094118
43620,-0.342642962932587,36.0576031926078
43730,-0.34243580698967,35.8172152520334
43840,-0.34305727481842,35.4566376639185
43940,-0.34243580698967,35.0359652520334
44050,-0.342021465301514,35.0359652520334
44160,-0.34160715341568,35.336448016378
44270,-0.342021465301514,35.5167411331821
44380,-0.342642962932587,35.096068721297
44490,-0.342642962932587,34.8556807807226
44600,-0.342642962932587,34.4951031926078
44710,-0.342642962932587,34.4350083688375
44820,-0.34243580698967,33.8941376639185
44930,-0.342642962932587,33.7739393708847
45040,-0.34243580698967,33.5335514303104
45150,-0.342021465301514,33.7138445471145
45250,-0.341814309358597,33.7138445471145
45360,-0.341814309358597,33.834034194655
45470,-0.342850118875504,33.3532669589996
45580,-0.342642962932587,33.2931721352293
45690,-0.342228621244431,33.5335600758037
45800,-0.342642962932587,33.2931721352293
45910,-0.343264430761337,33.1729824876888
46020,-0.342642962932587,32.9325945471145
46130,-0.34305727481842,32.5119221352293
46240,-0.34243580698967,32.2114393708847
46360,-0.342850118875504,32.0311462540807
46460,-0.34243580698967,31.9109479610469
46570,-0.343678742647171,31.3099910778509
46670,-0.342021465301514,31.0696117827699
46780,-0.341814309358597,31.1898014303104
46890,-0.342850118875504,31.1297066065401
47000,-0.342642962932587,31.0095083135063
47110,-0.34243580698967,31.2498876085874
47220,-0.343264430761337,30.6489307253915
47330,-0.340985685586929,30.8893100204725
47440,-0.343264430761337,30.8292151967023
47550,-0.34305727481842,30.769120372932
47660,-0.341192841529846,30.8292151967023
47770,-0.342021465301514,30.8292151967023
47880,-0.343471586704254,30.2883531372766
47980,-0.34305727481842,30.3484479610469
48090,-0.342642962932587,30.2282496680131
48200,-0.341814309358597,30.1681548442428
48310,-0.34305727481842,29.987870372932
48420,-0.34305727481842,29.6272927848171
48530,-0.342228621244431,29.6873962540807
48640,-0.342228621244431,29.4470169589996
48750,-0.342021465301514,29.2066376639185
48860,-0.34243580698967,28.9662497233442
48970,-0.342850118875504,28.6657669589996
49080,-0.341814309358597,28.8460600758037
49190,-0.342021465301514,28.7258704282632
49300,-0.341814309358597,28.7859652520334
49400,-0.341814309358597,29.0263531926078
49510,-0.34243580698967,28.7859652520334
49620,-0.340985685586929,29.2667324876888
49730,-0.342642962932587,29.2066376639185
49840,-0.341192841529846,29.2667324876888
49950,-0.342850118875504,28.9662497233442
50060,-0.34243580698967,28.9662497233442
50170,-0.342850118875504,28.6056721352293
50280,-0.342642962932587,28.3051893708847
50390,-0.342850118875504,28.2450945471145
50500,-0.342021465301514,28.3051893708847
50610,-0.342850118875504,27.9446117827699
50710,-0.34243580698967,27.8244134897361
50820,-0.342228621244431,28.1849910778509
50930,-0.342228621244431,28.3051893708847
51040,-0.342642962932587,27.8845169589996
51150,-0.341814309358597,27.9446117827699
51260,-0.34160715341568,28.2450945471145
51370,-0.34243580698967,28.365284194655
51480,-0.341192841529846,28.5455686659658
51590,-0.342021465301514,28.2450945471145
51700,-0.342228621244431,28.305198016378
51810,-0.340571343898773,29.0263531926078
51920,-0.34243580698967,28.9061548995739
52030,-0.341814309358597,29.086448016378
52130,-0.341399997472763,29.3869307807226
52240,-0.343264430761337,29.1465514856416
52350,-0.34305727481842,28.846068721297
52460,-0.342642962932587,28.6657756044929
52570,-0.341192841529846,28.7859652520334
52680,-0.343264430761337,28.3652928401483
52790,-0.342850118875504,28.305198016378
52900,-0.341814309358597,28.5455859569524
53010,-0.342228621244431,28.5455859569524
53120,-0.342642962932587,28.4253876639185
53230,-0.34305727481842,28.2451031926078
53340,-0.342850118875504,28.1249135450672
53440,-0.34160715341568,28.4253963094118
53550,-0.342228621244431,28.5455946024456
53660,-0.342021465301514,28.6657928954794
53770,-0.343264430761337,28.4855084241687
53880,-0.341814309358597,28.6056980717092
53990,-0.341814309358597,28.8460860122835
54100,-0.34243580698967,28.8460860122835
54210,-0.342228621244431,28.8460860122835
54320,-0.34243580698967,28.3653101311348
54430,-0.34243580698967,28.6056894262159
54540,-0.34243580698967,28.0047238975267
54650,-0.342642962932587,27.8845256044929
54760,-0.341399997472763,27.9446204282632
54860,-0.342642962932587,27.7042324876888
54970,-0.341399997472763,27.5840428401483
55080,-0.34243580698967,27.4638445471145
55190,-0.342021465301514,27.6441376639185
55300,-0.34160715341568,27.7042324876888
55410,-0.34243580698967,27.8244221352293
55520,-0.34243580698967,27.7643186659658
55630,-0.342850118875504,27.4638359016212
55740,-0.34243580698967,27.2835427848171
55850,-0.34243580698967,27.5239220798982
55960,-0.340985685586929,27.9445944917833
56070,-0.34243580698967,27.8844910225198
56170,-0.34243580698967,27.94458584629
56280,-0.34160715341568,28.1849737868644
56390,-0.342021465301514,28.1849737868644
56500,-0.342228621244431,28.1849737868644
56610,-0.342642962932587,28.3051634344049
56720,-0.341814309358597,28.0647841393239
56830,-0.343264430761337,27.7643013749793
56940,-0.34305727481842,27.3436289630941
57050,-0.341814309358597,27.2234393155536
57170,-0.342021465301514,27.3436376085874
57270,-0.34243580698967,26.9830600204725
57380,-0.34243580698967,26.8628617274387
57490,-0.342228621244431,26.7426720798982
57590,-0.342021465301514,26.9229651967023
57700,-0.34243580698967,26.9229651967023
57810,-0.34305727481842,26.9229651967023
57920,-0.34160715341568,27.1633531372766
58030,-0.341399997472763,27.3436376085874
58140,-0.342021465301514,27.2234479610469
58250,-0.342228621244431,27.1633531372766
58360,-0.34243580698967,27.2234479610469
58470,-0.340985685586929,27.7042151967023
58580,-0.342642962932587,27.7042151967023
58690,-0.342228621244431,27.8244134897361
58800,-0.34243580698967,27.8244134897361
58900,-0.342642962932587,27.8244134897361
59010,-0.34160715341568,28.0648014303104
59120,-0.342021465301514,28.0648014303104
59230,-0.34243580698967,27.8845083135063
59340,-0.342850118875504,27.5840255491617
59450,-0.341192841529846,28.0647927848171
59560,-0.341814309358597,28.3051807253915
59670,-0.342021465301514,28.3652755491617
59780,-0.343264430761337,28.1849910778509
59890,-0.34243580698967,28.425370372932
60000,-0.340985685586929,28.9061376085874
60110,-0.341814309358597,29.2667151967023
60220,-0.34305727481842,29.0864307253915
60320,-0.341399997472763,29.5071031372766
60430,-0.34305727481842,29.3268186659658
60540,-0.342228621244431,29.7474910778509
60650,-0.34243580698967,29.6272927848171
60760,-0.342021465301514,29.5671979610469
60870,-0.34305727481842,29.5071031372766
60980,-0.341814309358597,29.7474910778509
61090,-0.342228621244431,29.8075945471145
61200,-0.342850118875504,29.927784194655
61310,-0.34243580698967,29.5071117827699
61420,-0.341814309358597,29.927784194655
61530,-0.34160715341568,30.3484566065401
61630,-0.342021465301514,30.1080773114591
61740,-0.342021465301514,30.1080773114591
61850,-0.343264430761337,30.1681721352293
61960,-0.342228621244431,30.4085600758037
62070,-0.342021465301514,30.5888531926078
62180,-0.34243580698967,30.4085600758037
62290,-0.342021465301514,30.7090428401483
62400,-0.341814309358597,31.0696204282632
62510,-0.34243580698967,31.0095169589996
62620,-0.342021465301514,31.0696117827699
62730,-0.340985685586929,31.3700859016212
62840,-0.343471586704254,31.0696117827699
62950,-0.341399997472763,31.490284194655
63050,-0.341192841529846,31.6705686659658
63160,-0.342021465301514,31.6705686659658
63270,-0.341814309358597,31.6705686659658
63380,-0.342642962932587,31.4301807253915
63490,-0.342850118875504,31.3099910778509
63600,-0.342021465301514,31.0095169589996
63710,-0.341399997472763,31.3700945471145
63820,-0.341814309358597,31.1898100758037
63930,-0.342228621244431,31.3701031926078
64040,-0.34243580698967,31.3701031926078
64150,-0.342642962932587,31.430198016378
64260,-0.342642962932587,31.430198016378
64360,-0.342021465301514,31.6705859569524
64470,-0.34305727481842,31.3701031926078
64580,-0.34243580698967,31.4902928401483
64690,-0.34160715341568,31.7306807807226
64800,-0.342850118875504,31.5503876639185
64910,-0.34243580698967,31.490284194655
65020,-0.34243580698967,31.5503790184253
65130,-0.34243580698967,31.3700859016212
65240,-0.34160715341568,31.3700859016212
65350,-0.34243580698967,31.3700859016212
65460,-0.341399997472763,31.3099910778509
65570,-0.342228621244431,31.2498962540807
65680,-0.342228621244431,31.2498962540807
65780,-0.342850118875504,30.5888359016212
65890,-0.34243580698967,30.5888359016212
66000,-0.343471586704254,30.1080686659658
66110,-0.342228621244431,29.8676893708847
66220,-0.341399997472763,30.4085514303104
66330,-0.34305727481842,30.4085514303104
66440,-0.342021465301514,30.5888445471145
66550,-0.342021465301514,30.3484652520334
66660,-0.341814309358597,30.7691376639185
66770,-0.341399997472763,31.1898100758037
66880,-0.342228621244431,31.0696204282632
66990,-0.342021465301514,31.1297152520334
67090,-0.34305727481842,31.0095256044929
67200,-0.34305727481842,31.0095256044929
67310,-0.341814309358597,31.3100083688375
67420,-0.34305727481842,30.8893359569524
67530,-0.342642962932587,30.7691376639185
67640,-0.34243580698967,30.6489393708847
67750,-0.342021465301514,31.0095169589996
67860,-0.341814309358597,31.0095169589996
67970,-0.342850118875504,30.709034194655
68080,-0.342642962932587,30.6489393708847
68190,-0.343264430761337,30.3484566065401
68300,-0.34243580698967,30.3484566065401
68410,-0.343264430761337,30.1080773114591
68510,-0.341192841529846,30.4686548995739
68620,-0.342642962932587,30.4686548995739
68730,-0.342642962932587,30.1080773114591
68840,-0.342021465301514,30.2883704282632
68950,-0.34243580698967,29.9878876639185
69060,-0.341192841529846,30.3484652520334
69170,-0.342021465301514,30.3484652520334
69280,-0.342642962932587,30.0479824876888
69390,-0.341814309358597,30.2282756044929
69500,-0.34160715341568,30.4686635450672
69610,-0.340571343898773,31.1297238975267
69720,-0.342642962932587,31.0696290737564
69820,-0.342642962932587,31.0095342499862
69930,-0.343471586704254,30.2883877192497
70040,-0.342642962932587,30.2282928954794
70150,-0.344093084335327,29.747525659824
70260,-0.342021465301514,29.6273360122835
70370,-0.343678742647171,29.1465687766281
70480,-0.341399997472763,29.3869480717092
70590,-0.34160715341568,29.6874308360538
70700,-0.34305727481842,29.3268532479389
70810,-0.342642962932587,29.5071377192497
70920,-0.34305727481842,29.5071377192497
71030,-0.342642962932587,29.2667497786754
71140,-0.342228621244431,29.2066549549051
71240,-0.342228621244431,29.2667584241687
71350,-0.342850118875504,29.1465687766281
71460,-0.342228621244431,29.1465687766281
71570,-0.342228621244431,29.0864739528579
71680,-0.342021465301514,29.2066722458917
71790,-0.344507396221161,28.7859998340065
71900,-0.34305727481842,28.3653274221214
72010,-0.343264430761337,27.8244653626957
72120,-0.34305727481842,27.5239825983511
72230,-0.34243580698967,27.4638791290876
72340,-0.342228621244431,27.5239825983511
72450,-0.34243580698967,27.103310186466
72550,-0.342642962932587,27.103310186466
72660,-0.342642962932587,26.9831118934322
72770,-0.342850118875504,26.8629222458917
72880,-0.343678742647171,26.5624481270403
72990,-0.34305727481842,26.1417757151552
73100,-0.342021465301514,26.1417757151552
73210,-0.342850118875504,26.0215860676147
73320,-0.342850118875504,26.0215860676147
73430,-0.34243580698967,25.6610084794998
73540,-0.342850118875504,25.3605257151552
73650,-0.343678742647171,24.8797584794998
73760,-0.34388592839241,24.6994653626957
73870,-0.343264430761337,24.4590860676147
73970,-0.343471586704254,23.7379395368782
74080,-0.344300240278244,23.0167843606485
74190,-0.34243580698967,23.1970688319593
74300,-0.34243580698967,22.8965860676147
74410,-0.342228621244431,23.136974008189
74520,-0.342642962932587,23.0167757151552
74630,-0.343264430761337,22.7763964200741
74740,-0.342850118875504,22.5360084794998
74850,-0.344093084335327,22.2355257151552
74960,-0.342642962932587,21.9951377745809
75070,-0.34243580698967,21.9350343053173
75180,-0.342642962932587,21.9951291290876
75280,-0.343471586704254,21.6946550102363
75390,-0.342642962932587,21.4542670696619
75510,-0.342850118875504,21.0936894815471
75610,-0.342850118875504,20.8533015409727
75720,-0.34243580698967,20.7331032479389
75830,-0.342228621244431,21.0335860122835
75940,-0.343471586704254,20.6730084241687
76050,-0.34305727481842,20.372525659824
76160,-0.343264430761337,20.132146364743
76270,-0.342021465301514,20.132146364743
76380,-0.343471586704254,19.6513791290876
76490,-0.341814309358597,19.8316722458917
76600,-0.342642962932587,19.6513791290876
76700,-0.342642962932587,19.1706118934322
76810,-0.342228621244431,19.5311894815471
76920,-0.342850118875504,19.1105170696619
77030,-0.34305727481842,18.5696550102363
77140,-0.34388592839241,18.0287843053173
77250,-0.34160715341568,18.0888791290876
77360,-0.34243580698967,18.1489739528579
77470,-0.34243580698967,18.2691636003984
77580,-0.34243580698967,18.1489653073646
77690,-0.341814309358597,18.028775659824
77800,-0.34305727481842,17.6681980717092
77910,-0.342642962932587,17.5479997786754
78010,-0.343678742647171,17.1874308360538
78120,-0.34243580698967,17.247525659824
78230,-0.34243580698967,17.3076204835943
78340,-0.341192841529846,17.5479997786754
78450,-0.34243580698967,17.7282842499862
78560,-0.343471586704254,17.4278101311348
78670,-0.342850118875504,17.06723254302
78780,-0.342021465301514,17.3076204835943
78890,-0.342642962932587,17.247525659824
79000,-0.342850118875504,17.1273360122835
79110,-0.343471586704254,16.8268618934322
79220,-0.34243580698967,16.5864739528579
79330,-0.341399997472763,16.8869567172025
79430,-0.34305727481842,16.4061894815471
79540,-0.342021465301514,16.4662843053173
79650,-0.342850118875504,16.2859911885133
79760,-0.342021465301514,16.5263791290876
79870,-0.343471586704254,16.2259050102363
79980,-0.342642962932587,16.4662843053173
80090,-0.343471586704254,16.1057067172025
80200,-0.342850118875504,15.6850343053173
80310,-0.34305727481842,15.6850343053173
80420,-0.342228621244431,15.6249394815471
80530,-0.342850118875504,15.3845515409727
80640,-0.342642962932587,15.1441636003984
80740,-0.342228621244431,14.9037843053173
80850,-0.342228621244431,14.9037843053173
80970,-0.34243580698967,14.7835860122835
81070,-0.34243580698967,14.9638704835943
81180,-0.342228621244431,15.2042584241686
81290,-0.341399997472763,15.3244480717092
81400,-0.342228621244431,15.5648360122835
81510,-0.34243580698967,15.6249308360538
81620,-0.342850118875504,15.5047411885133
81730,-0.342642962932587,15.3244480717092
81840,-0.342021465301514,15.2643532479389
81950,-0.342642962932587,15.3244480717092
82060,-0.343678742647171,15.0239739528579
82160,-0.34305727481842,15.0840687766281
82270,-0.34305727481842,14.9037843053173
82380,-0.342642962932587,15.0840687766281
82490,-0.342850118875504,14.6033015409727
82600,-0.343471586704254,14.3629222458917
82710,-0.34243580698967,14.4230170696619
82820,-0.34243580698967,14.3028187766281
82930,-0.34077849984169,14.7835946577768
83040,-0.34160715341568,14.6634050102363
83150,-0.341814309358597,14.7234998340065
83260,-0.342228621244431,14.8436981270403
83370,-0.343471586704254,14.3629308913849
83470,-0.34160715341568,14.3629308913849
83580,-0.342228621244431,13.8821636557295
83690,-0.343264430761337,13.7018791844187
83800,-0.342642962932587,13.7018791844187
83910,-0.342642962932587,13.9422584794998
84020,-0.34160715341568,14.2427412438444
84130,-0.34243580698967,14.7235084794998
84240,-0.34305727481842,14.4230257151552
84350,-0.343264430761337,14.5432153626957
84460,-0.342642962932587,14.1826377745809
84570,-0.342228621244431,14.0023533032701
84680,-0.342228621244431,14.2427412438444
84790,-0.34305727481842,14.1225515963039
84890,-0.34160715341568,14.543224008189
85000,-0.343678742647171,14.2427498893377
85110,-0.341192841529846,14.543224008189
85220,-0.34160715341568,14.7235084794998
85330,-0.342228621244431,14.9038015963039
85440,-0.34243580698967,14.8436981270403
85550,-0.342228621244431,14.8436981270403
85660,-0.343264430761337,14.4831205389255
85770,-0.34243580698967,15.0840774221214
85880,-0.342642962932587,15.2042670696619
85990,-0.342850118875504,15.3244567172025
86100,-0.34243580698967,15.5047411885133
86200,-0.34305727481842,15.3244567172025
86310,-0.342850118875504,15.1441636003984
86420,-0.34243580698967,15.1441636003984
86530,-0.341814309358597,15.3845515409727
86640,-0.342642962932587,15.3845515409727
86750,-0.342850118875504,15.3845515409727
86860,-0.343678742647171,15.3845515409727
86970,-0.341192841529846,15.9254136003984
87080,-0.343264430761337,15.5648360122835
87190,-0.34243580698967,15.685025659824
87300,-0.34305727481842,15.6249308360538
87410,-0.34243580698967,15.6249308360538
87520,-0.342642962932587,15.685025659824
87620,-0.34305727481842,15.8653101311348
87730,-0.341814309358597,16.466275659824
87840,-0.341814309358597,16.8869480717092
87950,-0.343264430761337,16.9470428954794
88060,-0.342021465301514,17.6081032479389
88170,-0.341814309358597,17.788396364743
88280,-0.34243580698967,17.788396364743
88390,-0.34388592839241,17.3076204835943
88500,-0.343678742647171,17.007146364743
88610,-0.34243580698967,17.247525659824
88720,-0.342228621244431,17.4278187766281
88830,-0.342850118875504,17.788396364743
88930,-0.342228621244431,17.9085946577768
89040,-0.342228621244431,17.9686981270403
89150,-0.342642962932587,17.9686981270403
89260,-0.34243580698967,18.2691722458917
89370,-0.342642962932587,18.2691722458917
89480,-0.34305727481842,18.2090774221214
89590,-0.342850118875504,18.2090774221214
89700,-0.34305727481842,18.0287929508106
89810,-0.34305727481842,17.7884050102363
89920,-0.341399997472763,18.3893618934322
90030,-0.341814309358597,18.7499394815471
90140,-0.343471586704254,18.6898446577768
90250,-0.343678742647171,18.2090774221214
90350,-0.342850118875504,18.3893618934322
90460,-0.34305727481842,18.0287843053173
90570,-0.343678742647171,17.728310186466
90680,-0.342850118875504,17.6682153626957
90790,-0.342642962932587,17.5480170696619
90900,-0.343264430761337,17.4278274221214
91010,-0.343264430761337,17.3677325983511
91120,-0.342642962932587,17.728310186466
91230,-0.342850118875504,17.3677325983511
91340,-0.34243580698967,17.3677325983511
91450,-0.342850118875504,17.2475429508106
91560,-0.342642962932587,17.1874481270403
91660,-0.343264430761337,16.7667757151552
91770,-0.34243580698967,16.947060186466
91880,-0.342850118875504,16.8869653626957
91990,-0.342642962932587,17.1874394815471
92100,-0.342850118875504,17.0672498340065
92210,-0.34388592839241,16.6465774221214
92320,-0.34305727481842,16.1057153626957
92430,-0.34243580698967,16.1057153626957
92540,-0.341399997472763,16.7066722458917
92650,-0.342642962932587,16.7667670696619
92760,-0.342228621244431,16.7066722458917
92870,-0.342850118875504,16.6465774221214
92980,-0.342228621244431,16.8268705389255
93080,-0.343264430761337,16.8869653626957
93190,-0.343471586704254,16.5864912438444
93300,-0.343471586704254,15.9855343606485
93420,-0.34160715341568,16.4062067725336
93520,-0.34243580698967,16.2860084794998
93630,-0.342850118875504,16.2860084794998
93740,-0.34243580698967,16.165810186466
93850,-0.341814309358597,16.6465774221214
93960,-0.342228621244431,16.7667757151552
94070,-0.34305727481842,16.8869653626957
94180,-0.344300240278244,16.4662929508106
94290,-0.34243580698967,16.6465774221214
94390,-0.342850118875504,16.4662843053173
94500,-0.343264430761337,16.3460946577768
94610,-0.342642962932587,16.3460946577768
94720,-0.342021465301514,16.4061894815471
94830,-0.343264430761337,16.1057067172025
94940,-0.343264430761337,15.8653274221214
95050,-0.34305727481842,15.6850429508106
95160,-0.344300240278244,15.0840774221214
95270,-0.341814309358597,14.9638877745809
95380,-0.342850118875504,14.7835946577768
95490,-0.34305727481842,14.603310186466
95600,-0.34305727481842,14.5432153626957
95710,-0.342850118875504,14.4831205389255
95810,-0.342021465301514,14.4831205389255
95920,-0.341814309358597,14.7235084794998
96030,-0.343678742647171,14.7235084794998
96140,-0.343471586704254,14.6033188319593
96250,-0.34243580698967,14.7836033032701
96360,-0.342228621244431,14.9038015963039
96470,-0.34243580698967,15.0239912438444
96580,-0.34305727481842,15.1441808913849
96690,-0.342021465301514,15.2643791844187
96800,-0.343264430761337,15.0239998893377
96910,-0.34305727481842,14.3629395368782
97020,-0.341814309358597,14.302844713108
97120,-0.34243580698967,14.1225515963039
97230,-0.343471586704254,13.761974008189
97340,-0.34305727481842,13.8821636557295
97450,-0.34305727481842,13.4614912438444
97560,-0.342642962932587,13.3412929508106
97670,-0.34243580698967,13.5816722458917
97780,-0.343264430761337,13.4013877745809
97890,-0.342642962932587,13.4013877745809
98000,-0.342228621244431,13.2211033032701
98110,-0.343471586704254,12.9206291844187
98220,-0.341814309358597,13.2812067725336
98330,-0.343678742647171,13.1610171249931
98440,-0.34160715341568,13.4614998893377
98540,-0.342850118875504,13.2812067725336
98650,-0.343471586704254,12.9206291844187
98760,-0.341814309358597,13.2812067725336
98870,-0.342642962932587,12.980724008189
98980,-0.343678742647171,12.980724008189
99090,-0.342021465301514,12.740344713108
99200,-0.343471586704254,12.1994826536823
99310,-0.342642962932587,12.0792843606485
99420,-0.343264430761337,11.8389050655674
99530,-0.341399997472763,12.0792843606485
99640,-0.343264430761337,12.0792843606485
99750,-0.34243580698967,12.0792843606485
99850,-0.344714552164078,11.4783274774526
99960,-0.343471586704254,11.2980430061418
100070,-0.341814309358597,11.4783361229458
100180,-0.341192841529846,12.0191981823715
100290,-0.342021465301514,12.2595861229458
100410,-0.342228621244431,12.3196895922094
100510,-0.342642962932587,12.079301651635
100620,-0.342850118875504,12.0192068278648
100730,-0.343471586704254,11.838922356554
100840,-0.342850118875504,12.079301651635
100950,-0.342850118875504,11.5985344159796
101060,-0.342228621244431,11.8990171803242
101170,-0.342642962932587,11.838922356554
101270,-0.342642962932587,11.9591120040945
101380,-0.34160715341568,12.1994999446688
101490,-0.342850118875504,12.1394051208986
101600,-0.343678742647171,11.9591206495878
101710,-0.342228621244431,11.8389310020473
101820,-0.34305727481842,11.4783534139324
101930,-0.342642962932587,11.6586378852432
102040,-0.34305727481842,11.3581551208986
102150,-0.34388592839241,10.7571895922094
102260,-0.341814309358597,10.9374827090134
102370,-0.342850118875504,11.237965473358
102480,-0.342228621244431,11.6586378852432
102590,-0.34160715341568,11.8990258258175
102690,-0.34388592839241,11.4182499446688
102800,-0.344300240278244,10.9975775327837
102910,-0.34243580698967,10.9374740635202
103020,-0.34160715341568,11.117758534831
103130,-0.342850118875504,11.0576637110607
103240,-0.343264430761337,10.8172844159796
103350,-0.34305727481842,10.6970947684391
103460,-0.342228621244431,10.9374827090134
103570,-0.342021465301514,11.1778706495878
103680,-0.343678742647171,10.997586178277
103790,-0.34305727481842,10.997586178277
103900,-0.343678742647171,10.3365344713108
104000,-0.34243580698967,10.1562413545067
104110,-0.341192841529846,10.8172930614729
104220,-0.342642962932587,11.1177671803242
104330,-0.343471586704254,10.9374827090134
104440,-0.34243580698967,11.1177671803242
104550,-0.34305727481842,11.298051651635
104660,-0.340985685586929,11.8389137110607
104770,-0.342228621244431,11.9591120040945
104880,-0.344093084335327,11.7187240635202
104990,-0.342850118875504,11.8389137110607
105100,-0.34305727481842,11.7187240635202
105210,-0.342642962932587,11.7788188872904
105320,-0.342850118875504,11.6586292397499
105420,-0.342642962932587,11.7187240635202
105530,-0.343471586704254,11.4783447684391
105640,-0.342228621244431,11.7788275327837
105750,-0.342642962932587,11.7187327090134
105860,-0.342642962932587,11.7788275327837
105970,-0.341814309358597,12.019215473358
106080,-0.342642962932587,12.0793102971283
106190,-0.342228621244431,12.560086178277
106300,-0.34305727481842,12.560086178277
106410,-0.342642962932587,12.4999913545067
106520,-0.34243580698967,12.1995085901621
106630,-0.342228621244431,12.3197068831959
106730,-0.34160715341568,12.4999913545067
106840,-0.34305727481842,12.4398965307365
106950,-0.344093084335327,11.8990258258175
107060,-0.34305727481842,11.9591206495878
107170,-0.342228621244431,12.3196982377027
107280,-0.34388592839241,12.1994999446688
107390,-0.341814309358597,12.1394051208986
107500,-0.34243580698967,12.1394051208986
107610,-0.34243580698967,12.2595947684391
107720,-0.34388592839241,11.838922356554
107830,-0.34160715341568,11.8990171803242
107940,-0.342850118875504,11.7187240635202
108050,-0.343678742647171,11.5384395922094
108150,-0.34305727481842,11.8990171803242
108260,-0.342850118875504,11.7788275327837
108370,-0.34160715341568,12.1394051208986
108480,-0.343471586704254,12.0793102971283
108590,-0.342850118875504,12.019215473358
108700,-0.343471586704254,11.5985430614729
108810,-0.34243580698967,11.838922356554
108920,-0.342021465301514,12.1994999446688
109030,-0.344093084335327,11.8990171803242
109140,-0.34305727481842,12.2595947684391
109250,-0.34243580698967,12.079301651635
109360,-0.343471586704254,11.8990171803242
109460,-0.342021465301514,12.1994999446688
109570,-0.343471586704254,12.0793102971283
109680,-0.34160715341568,12.4398878852432
109790,-0.342228621244431,12.3797930614729
109900,-0.34160715341568,12.4398878852432
110010,-0.342228621244431,12.8605602971283
110120,-0.34243580698967,13.1610344159796
110230,-0.341192841529846,13.5216120040945
110340,-0.34305727481842,13.2812240635202
110450,-0.34305727481842,13.1009395922094
110560,-0.34243580698967,13.2812240635202
110670,-0.343264430761337,12.9206464754053
110780,-0.342021465301514,13.2812240635202
110880,-0.342228621244431,13.5216120040945
110990,-0.342228621244431,13.401422356554
111100,-0.342850118875504,13.2812327090134
111210,-0.342642962932587,13.5216120040945
111320,-0.342228621244431,13.7619999446688
111430,-0.342021465301514,14.0624827090134
111540,-0.343678742647171,13.7620085901621
111650,-0.341814309358597,13.9423017069662
111760,-0.341399997472763,14.4831637663919
111870,-0.342642962932587,14.4831637663919
111980,-0.342642962932587,14.362965473358
112090,-0.342021465301514,14.7836378852432
112190,-0.342021465301514,14.7235430614729
112300,-0.34243580698967,15.0841120040945
112410,-0.342642962932587,14.7836292397499
112520,-0.342850118875504,14.7836292397499
112630,-0.342021465301514,15.204301651635
112740,-0.342642962932587,14.9639137110607
112850,-0.343264430761337,14.7836292397499
112960,-0.34243580698967,15.1441981823715
113070,-0.343264430761337,14.7836205942566
113180,-0.342850118875504,14.9639050655674
113290,-0.341814309358597,15.2042930061418
113400,-0.34305727481842,15.264387829912
113510,-0.342642962932587,14.9038102417972
113610,-0.34388592839241,14.7235171249931
113720,-0.342642962932587,14.6634223012228
113830,-0.342228621244431,15.3845774774526
113940,-0.343471586704254,15.3845774774526
114050,-0.343264430761337,14.9639050655674
114160,-0.342021465301514,14.7235257704864
114270,-0.342021465301514,14.7235257704864
114380,-0.342228621244431,14.7235257704864
114490,-0.344507396221161,14.1826637110607
114600,-0.343471586704254,14.0023792397499
114710,-0.342850118875504,14.1826637110607
114820,-0.342642962932587,14.242758534831
114920,-0.342642962932587,14.3028533586012
115030,-0.34243580698967,14.2427498893377
115140,-0.34388592839241,13.8821723012228
115250,-0.342850118875504,13.8220774774526
115360,-0.343264430761337,13.3413102417972
115470,-0.34160715341568,13.701887829912
115580,-0.342021465301514,14.1826550655674
115690,-0.34305727481842,13.9422671249931
115800,-0.343264430761337,13.8821723012228
115910,-0.342021465301514,14.0624654180269
116020,-0.342850118875504,14.1225602417972
116130,-0.342021465301514,14.6634309467161
116240,-0.342642962932587,14.4230430061418
116340,-0.342850118875504,14.4230430061418
116450,-0.34243580698967,14.3629395368782
116560,-0.342021465301514,14.2427498893377
116670,-0.34305727481842,14.483137829912
116780,-0.34243580698967,15.0239998893377
116890,-0.342021465301514,15.1441981823715
117000,-0.34305727481842,14.7235257704864
117110,-0.342228621244431,14.9038188872904
117220,-0.34388592839241,14.7235257704864
117330,-0.342850118875504,14.7836205942566
117440,-0.344921708106995,14.0023705942566
117550,-0.341192841529846,14.2427498893377
117650,-0.342850118875504,14.4831291844187
117760,-0.34243580698967,14.6634136557295
117870,-0.34305727481842,14.8436981270403
117980,-0.342642962932587,14.7836033032701
118090,-0.34305727481842,14.2427412438444
118200,-0.342642962932587,14.2427412438444
118310,-0.34160715341568,14.7836033032701
118420,-0.342850118875504,14.6634136557295
118530,-0.34305727481842,14.6634136557295
118640,-0.344300240278244,13.7018791844187
118750,-0.340985685586929,14.0624481270403
118860,-0.342850118875504,14.4230257151552
118970,-0.343471586704254,14.2427412438444
119070,-0.343471586704254,14.1225515963039
119180,-0.342850118875504,14.0624567725336
119290,-0.34388592839241,13.761974008189
119400,-0.342228621244431,13.8821723012228
119510,-0.344093084335327,13.7018791844187
119620,-0.342228621244431,13.7018791844187
119730,-0.342642962932587,13.7018791844187
119840,-0.343471586704254,13.4614998893377
119950,-0.34243580698967,13.2812067725336
120060,-0.342642962932587,13.2812067725336
120170,-0.342642962932587,13.1610084794998
120280,-0.343678742647171,12.980724008189
120380,-0.343264430761337,12.8004395368782
120490,-0.342850118875504,12.6802498893377
120600,-0.344300240278244,12.0792843606485
120710,-0.34388592839241,11.418224008189
120820,-0.34305727481842,11.418224008189
120930,-0.342228621244431,11.959094713108
121040,-0.34305727481842,11.959094713108
121150,-0.34305727481842,11.7187067725336
121260,-0.344093084335327,11.6586119487633
121370,-0.342850118875504,11.3581291844187
121480,-0.342642962932587,11.2980343606485
121590,-0.343471586704254,10.9975602417972
121700,-0.343471586704254,11.117758534831
121800,-0.342642962932587,10.8172757704864
121910,-0.342642962932587,10.8773705942566
122020,-0.342850118875504,11.1177498893377
122130,-0.342642962932587,11.2379395368782
122240,-0.342642962932587,11.2980343606485
122350,-0.342021465301514,11.177844713108
122460,-0.344300240278244,10.9374567725336
122570,-0.343264430761337,10.8172671249931
122680,-0.341814309358597,11.2980343606485
122790,-0.34243580698967,11.2980343606485
122900,-0.34305727481842,10.9975515963039
123010,-0.343678742647171,11.1177498893377
123110,-0.343264430761337,11.0576550655674
123220,-0.342642962932587,10.9975602417972
123330,-0.342642962932587,11.2379395368782
123440,-0.342021465301514,11.2379395368782
123550,-0.34160715341568,11.7788015963039
123660,-0.342642962932587,11.4783188319593
123770,-0.342850118875504,11.2980257151552
123880,-0.342850118875504,10.9374481270403
123990,-0.343471586704254,10.5768705389255
124100,-0.341814309358597,10.7571636557295
124210,-0.341192841529846,10.7571636557295
124320,-0.34388592839241,10.5167757151552
124430,-0.341814309358597,10.8773533032701
124530,-0.342021465301514,10.9975515963039
124640,-0.343471586704254,10.9374567725336
124750,-0.341814309358597,10.9975515963039
124860,-0.34305727481842,10.7571636557295
124970,-0.342228621244431,10.7571636557295
125080,-0.34243580698967,10.8773533032701
125190,-0.342642962932587,10.8773533032701
125300,-0.342021465301514,10.9374481270403
125410,-0.34160715341568,11.0576377745809
125520,-0.342021465301514,11.5384050102363
125630,-0.342850118875504,11.2379222458917
125740,-0.343678742647171,10.5768705389255
125840,-0.341814309358597,10.8172584794998
125950,-0.344714552164078,10.2163015963039
126060,-0.343264430761337,9.85572400818901
126170,-0.343264430761337,9.49514642007414
126280,-0.34305727481842,9.31486194876335
126390,-0.34305727481842,9.19467230122282
126500,-0.342642962932587,9.25476712499308
126610,-0.342021465301514,9.25476712499308
126720,-0.343471586704254,9.01438782991202
126830,-0.34243580698967,9.25476712499308
126940,-0.34243580698967,9.25476712499308
127050,-0.342642962932587,9.43505159630388
127160,-0.342021465301514,9.67543953687822
127260,-0.34305727481842,9.31486194876335
127370,-0.342228621244431,9.55524988933769
127480,-0.342228621244431,9.67544818237149
127590,-0.34160715341568,10.336508534831
127700,-0.342228621244431,10.4567068278648
127810,-0.342642962932587,10.336508534831
127920,-0.34243580698967,10.6369826536823
128030,-0.342642962932587,10.8172671249931
128140,-0.34243580698967,10.6970688319593
128250,-0.342850118875504,10.4566808913849
128360,-0.342642962932587,10.3364825983511
128470,-0.343471586704254,10.6369653626957
128570,-0.34305727481842,10.7571550102363
128680,-0.342850118875504,10.7571550102363
128790,-0.342850118875504,10.697060186466
128900,-0.34243580698967,10.7571550102363
129010,-0.343678742647171,10.3965860676147
129120,-0.342021465301514,10.9374567725336
129230,-0.342850118875504,10.9374567725336
129340,-0.342642962932587,11.1177412438444
129450,-0.342021465301514,10.9975515963039
129560,-0.344093084335327,10.3965860676147
129670,-0.34160715341568,10.8172584794998
129780,-0.342850118875504,10.9374481270403
129890,-0.342850118875504,10.697060186466
129990,-0.34243580698967,10.8172498340065
130100,-0.342850118875504,10.5768618934322
130210,-0.342642962932587,10.5768618934322
130320,-0.342642962932587,10.6369567172025
130430,-0.342021465301514,10.7571550102363
130540,-0.342642962932587,10.5768618934322
130650,-0.343264430761337,10.5167670696619
130760,-0.344093084335327,10.0359998340065
130870,-0.342850118875504,9.79561189343219
130980,-0.342850118875504,9.85570671720246
131090,-0.34243580698967,9.79560324793891
131200,-0.34243580698967,10.216275659824
131300,-0.34305727481842,10.1561808360538
131410,-0.34305727481842,10.6970428954794
131520,-0.342642962932587,10.2763704835943
131630,-0.342850118875504,10.2763704835943
131740,-0.34243580698967,10.2763704835943
131850,-0.342642962932587,10.3965601311348
131960,-0.342228621244431,10.5167584241686
132070,-0.34243580698967,10.6970428954794
132180,-0.343264430761337,10.5167584241686
132290,-0.343678742647171,9.91580154097272
132400,-0.342642962932587,9.97589636474299
132510,-0.34243580698967,10.1561808360538
132620,-0.342228621244431,10.757146364743
132720,-0.343264430761337,10.0960946577768
132830,-0.342642962932587,10.1561894815471
132940,-0.343264430761337,10.2162843053173
133050,-0.343264430761337,10.2763791290876
133160,-0.342850118875504,10.2763791290876
133270,-0.342228621244431,10.7571550102363
133380,-0.34305727481842,10.5167670696619
133490,-0.342850118875504,10.8773446577768
133600,-0.343678742647171,10.4566722458917
133710,-0.342850118875504,10.3965774221214
133820,-0.34243580698967,10.6970515409727
133930,-0.342850118875504,10.5768618934322
134030,-0.34243580698967,10.6369567172025
134140,-0.343471586704254,10.3965774221214
134250,-0.342850118875504,10.6369567172025
134360,-0.34388592839241,10.4566636003984
134470,-0.34305727481842,10.3965687766281
134580,-0.342850118875504,10.8172411885133
134690,-0.343264430761337,10.9975343053173
134800,-0.34305727481842,10.9975343053173
134910,-0.34243580698967,10.9374308360538
135020,-0.34243580698967,11.1177153073646
135130,-0.342850118875504,11.1778101311348
135240,-0.34305727481842,11.4782928954794
135350,-0.341814309358597,11.778775659824
135450,-0.342642962932587,11.778775659824
135560,-0.34243580698967,12.0792497786754
135670,-0.34243580698967,12.3797238975267
135780,-0.343264430761337,12.1994394262159
135890,-0.342642962932587,12.1994394262159
136000,-0.34243580698967,12.3196290737564
136110,-0.342642962932587,12.3196290737564
136220,-0.342228621244431,12.4398273667902
136330,-0.34243580698967,12.3196290737564
136440,-0.342850118875504,12.7403014856416
136550,-0.342850118875504,12.8604911331821
136660,-0.342228621244431,12.7403014856416
136760,-0.343678742647171,12.37973254302
136870,-0.34243580698967,12.5600170143308
136980,-0.343264430761337,12.6802066618713
137090,-0.34243580698967,12.9205859569524
137200,-0.343678742647171,12.620111838101
137310,-0.34243580698967,12.6802066618713
137420,-0.341814309358597,12.7403014856416
137530,-0.343264430761337,12.2595342499862
137640,-0.342642962932587,12.2595342499862
137750,-0.343678742647171,12.0191549549051
137860,-0.34305727481842,11.9590601311348
137970,-0.342642962932587,12.1994394262159
138080,-0.34388592839241,11.5984738975267
138180,-0.342228621244431,11.2979997786754
138290,-0.342850118875504,11.59848254302
138400,-0.34305727481842,11.2379049549051
138510,-0.343264430761337,10.8773273667902
138620,-0.342228621244431,11.2379049549051
138730,-0.343678742647171,10.6970428954794
138840,-0.342228621244431,10.9374308360538
138950,-0.34305727481842,10.6970428954794
139060,-0.342850118875504,10.5768532479389
139170,-0.343264430761337,10.3965687766281
139280,-0.34305727481842,10.0960860122835
139390,-0.34305727481842,9.67541360039838
139490,-0.342228621244431,9.61531877662812
139600,-0.342850118875504,9.61531877662812
139710,-0.342642962932587,9.91579289547945
139820,-0.341399997472763,10.03598254302
139930,-0.342021465301514,10.81723254302
140040,-0.343471586704254,10.7571377192497
140150,-0.341399997472763,11.2979997786754
140260,-0.342021465301514,11.59848254302
140370,-0.34243580698967,11.7787670143308
140480,-0.34305727481842,11.6585773667902
140590,-0.343264430761337,11.2979997786754
140700,-0.342021465301514,11.7186721905605
140810,-0.341192841529846,12.0792497786754
140910,-0.343678742647171,11.7186808360538
141020,-0.343678742647171,11.4182067172025
141130,-0.34305727481842,11.1177239528579
141240,-0.342850118875504,11.1778187766281
141350,-0.34243580698967,11.1177153073646
141460,-0.34305727481842,10.8773273667902
141570,-0.342850118875504,10.5167497786754
141680,-0.342228621244431,10.5167497786754
141790,-0.343678742647171,10.216275659824
141910,-0.34305727481842,10.0359911885133
142010,-0.34160715341568,10.3364739528579
142120,-0.342850118875504,10.2162843053173
142220,-0.342850118875504,10.2162843053173
142330,-0.342850118875504,10.1561894815471
142440,-0.343471586704254,10.1561894815471
142550,-0.343471586704254,10.0359998340065
142660,-0.342021465301514,10.2763877745809
142770,-0.343678742647171,10.0360084794998
142880,-0.344093084335327,9.55524124384441
142990,-0.34305727481842,9.7355257151552
143100,-0.343264430761337,9.37494812704034
143210,-0.343471586704254,9.19466365572954
143320,-0.343471586704254,8.95428436064848
143430,-0.343678742647171,8.47351712499308
143540,-0.342021465301514,9.07448265368229
143640,-0.343471586704254,8.53362059425663
143750,-0.343678742647171,8.29324129917557
143860,-0.342642962932587,8.35333612294583
143970,-0.342850118875504,8.2331464754053
144080,-0.34243580698967,8.35333612294583
144190,-0.343471586704254,8.11295682786477
144300,-0.34243580698967,8.17305165163503
144410,-0.341814309358597,8.2331464754053
144520,-0.34160715341568,8.5336292397499
144630,-0.342642962932587,8.7139137110607
144740,-0.34305727481842,9.0143964754053
144850,-0.342850118875504,9.0143964754053
144950,-0.343264430761337,8.89420682786477
145060,-0.343678742647171,8.53363788524318
145170,-0.341192841529846,8.89421547335805
145280,-0.34305727481842,8.89421547335805
145390,-0.342021465301514,9.19469823770265
145500,-0.344507396221161,8.65383617827699
145610,-0.343678742647171,8.41345688319593
145720,-0.343264430761337,8.17307758811487
145830,-0.342642962932587,8.17307758811487
145950,-0.343678742647171,7.75240517622973
146050,-0.342850118875504,7.63221552868921
146160,-0.34243580698967,7.87259482377027
146270,-0.342850118875504,8.11297411885132
146370,-0.34305727481842,7.99278447131079
146480,-0.34160715341568,8.23317241188513
146590,-0.34243580698967,8.17306894262159
146700,-0.342850118875504,8.29325859016212
146810,-0.34243580698967,8.35335341393239
146920,-0.341814309358597,8.77402582581752
147030,-0.34305727481842,8.83412064958778
147140,-0.342021465301514,9.07450859016212
147250,-0.34388592839241,8.59373270901344
147360,-0.342642962932587,8.71392235655398
147470,-0.342228621244431,8.89421547335805
147580,-0.342228621244431,9.31488788524318
147680,-0.34243580698967,9.43507753278371
147790,-0.342850118875504,9.31488788524318
147900,-0.342850118875504,9.31488788524318
148010,-0.342642962932587,9.25479306147292
148120,-0.342228621244431,9.61537064958778
148230,-0.342850118875504,9.61537064958778
148340,-0.342850118875504,9.91585341393239
148450,-0.34305727481842,9.91585341393239
148560,-0.34305727481842,9.85575859016212
148670,-0.34388592839241,9.67546547335805
148780,-0.34388592839241,9.43507753278371
148890,-0.34388592839241,9.01440512089858
149000,-0.34243580698967,9.01440512089858
149100,-0.34160715341568,9.37498270901344
149210,-0.342642962932587,9.49517235655398
149320,-0.34305727481842,9.13459476843911
149430,-0.342228621244431,9.25479306147292
149540,-0.342642962932587,9.19469823770265
149650,-0.342642962932587,9.13460341393239
149760,-0.343678742647171,9.01441376639186
149870,-0.343678742647171,8.71393964754053
149980,-0.342642962932587,8.65384482377027
150090,-0.342228621244431,8.77404311680407
150200,-0.34305727481842,8.53365517622973
150310,-0.342228621244431,8.59375864549328
150410,-0.341814309358597,8.89424140983788
150520,-0.34305727481842,8.83414658606761
150630,-0.34305727481842,8.59375864549328
150740,-0.342228621244431,9.01443105737841
150850,-0.34160715341568,9.25481899795275
150960,-0.343264430761337,9.25481899795275
151070,-0.34388592839241,8.83414658606761
151180,-0.34243580698967,9.1947155286892
151290,-0.343264430761337,8.95433623360814
151400,-0.34243580698967,8.77404311680407
151510,-0.34243580698967,9.01442241188513
151620,-0.341814309358597,9.25481035245947
151730,-0.34305727481842,9.43509482377027
151830,-0.34388592839241,9.19470688319593
151940,-0.343264430761337,9.01442241188513
152050,-0.34243580698967,9.43509482377027
152160,-0.341814309358597,9.5552844713108
152270,-0.342228621244431,9.73557758811487
152380,-0.342850118875504,9.79567241188513
152490,-0.34305727481842,9.8557672356554
152600,-0.343471586704254,9.49518964754053
152710,-0.341814309358597,10.0360517069662
152820,-0.34305727481842,9.79566376639186
152930,-0.342850118875504,9.85575859016212
153040,-0.34305727481842,9.79566376639186
153140,-0.342642962932587,9.97594823770265
153250,-0.34305727481842,9.97594823770265
153360,-0.342228621244431,10.216336178277
153470,-0.343471586704254,9.85575859016212
153580,-0.342642962932587,9.91585341393239
153690,-0.342642962932587,9.91585341393239
153800,-0.342228621244431,9.67547411885132
153910,-0.342642962932587,9.49518100204725
154020,-0.342021465301514,9.91585341393239
154130,-0.342228621244431,9.67547411885132
154240,-0.341814309358597,9.73556894262159
154350,-0.342850118875504,9.61537929508106
154460,-0.34388592839241,9.37499135450672
154560,-0.343678742647171,9.25480170696619
154670,-0.343471586704254,8.83412929508106
154780,-0.343471586704254,8.17307758811487
154890,-0.342642962932587,8.47355170696619
155000,-0.343678742647171,8.47355170696619
155110,-0.343678742647171,8.2932672356554
155220,-0.34305727481842,8.23317241188513
155330,-0.34243580698967,8.23317241188513
155440,-0.34305727481842,8.23317241188513
155550,-0.342850118875504,8.23317241188513
155660,-0.34305727481842,7.99278447131079
155770,-0.343471586704254,8.05287929508106
155870,-0.342228621244431,8.2932672356554
155980,-0.343678742647171,7.69231035245947
156090,-0.343264430761337,7.57212070491894
156200,-0.34160715341568,7.93269829303381
156310,-0.342850118875504,7.93269829303381
156420,-0.34305727481842,8.05288794057434
156530,-0.343471586704254,8.05288794057434
156640,-0.342642962932587,7.87259482377027
156750,-0.342642962932587,8.17306894262159
156860,-0.343471586704254,8.35336205942566
156970,-0.342642962932587,8.47355170696619
157080,-0.342850118875504,8.59374135450672
157190,-0.343471586704254,8.59374135450672
157290,-0.343264430761337,8.65383617827699
157400,-0.342850118875504,8.89421547335805
157510,-0.343264430761337,8.53363788524318
157620,-0.343678742647171,8.47354306147292
157730,-0.343678742647171,8.47354306147292
157840,-0.344093084335327,8.05287064958778
157950,-0.342021465301514,8.29325859016212
158060,-0.342021465301514,8.41345688319593
158170,-0.343678742647171,8.35336205942566
158280,-0.34305727481842,8.17307758811487
158390,-0.342228621244431,8.05288794057434
158500,-0.342850118875504,7.69231035245947
158600,-0.342850118875504,7.63221552868921
158710,-0.342850118875504,7.69231035245947
158820,-0.342228621244431,7.87260346926354
158930,-0.341814309358597,8.29327588114868
159040,-0.34388592839241,8.23317241188513
159150,-0.343678742647171,7.51202588114867
159260,-0.342228621244431,7.75241382172301
159370,-0.342850118875504,7.51202588114867
159480,-0.34243580698967,8.1129827643446
159590,-0.342642962932587,8.41345688319593
159700,-0.343471586704254,8.35336205942566
159810,-0.34305727481842,8.23317241188513
159920,-0.343264430761337,8.35336205942566
160020,-0.343471586704254,8.17307758811487
160130,-0.34305727481842,7.99279311680407
160240,-0.342642962932587,8.05288794057434
160350,-0.343264430761337,7.99279311680407
160460,-0.341399997472763,8.05288794057434
160570,-0.343471586704254,7.75241382172301
160680,-0.342850118875504,7.75241382172301
160790,-0.342642962932587,7.69231899795275
160900,-0.34160715341568,7.75241382172301
161010,-0.34243580698967,7.93269829303381
161120,-0.34388592839241,7.39182758811487
161230,-0.342021465301514,7.93269829303381
161330,-0.342850118875504,7.87260346926354
161440,-0.342021465301514,7.93269829303381
161550,-0.343264430761337,7.63221552868921
161660,-0.342642962932587,7.57212070491894
161770,-0.342228621244431,7.75241382172301
161880,-0.342021465301514,7.99280176229735
161990,-0.34305727481842,7.87261211475682
162100,-0.342228621244431,7.87261211475682
162210,-0.341399997472763,8.29328452664195
162320,-0.34243580698967,8.41347417418248
162430,-0.340985685586929,9.01443105737841
162540,-0.341399997472763,9.49519829303381
162650,-0.343264430761337,9.67549140983788
162750,-0.342228621244431,10.1562672909866
162860,-0.34243580698967,10.5769397028717
162970,-0.342021465301514,10.6971379959055
163080,-0.343678742647171,10.0961811127096
163190,-0.343264430761337,9.91589664139877
163300,-0.342642962932587,10.0360862889393
163410,-0.341192841529846,10.3365604077906
163520,-0.344300240278244,9.85579317213523
163630,-0.343264430761337,9.67550870082443
163740,-0.341399997472763,10.3365604077906
163850,-0.34305727481842,10.5168448791014
163960,-0.342021465301514,10.6971379959055
164060,-0.34243580698967,10.637034526642
164170,-0.342850118875504,10.6971293504122
164280,-0.343678742647171,10.2764569385271
164390,-0.342642962932587,10.0360689979527
164500,-0.342642962932587,10.1562586454933
164610,-0.342850118875504,10.2163534692635
164720,-0.342850118875504,10.0360603524595
164830,-0.342850118875504,9.6754827643446
164940,-0.342228621244431,9.9759655286892
165050,-0.34305727481842,10.2163534692635
165160,-0.342021465301514,10.3365517622973
165270,-0.34243580698967,10.5769310573784
165380,-0.342642962932587,10.5168362336081
165480,-0.341399997472763,10.8173189979527
165590,-0.342850118875504,10.5168362336081
165700,-0.34243580698967,10.6971207049189
165810,-0.342642962932587,11.0576982930338
165920,-0.34305727481842,11.1177931168041
166030,-0.342228621244431,11.1778965860676
166140,-0.343264430761337,10.7572241741825
166250,-0.342021465301514,10.8173189979527
166360,-0.34388592839241,10.5168362336081
166470,-0.342021465301514,10.8173189979527
166580,-0.342850118875504,10.9976034692635
166690,-0.342228621244431,10.877413821723
166790,-0.343264430761337,10.8173189979527
166900,-0.342642962932587,10.877413821723
167010,-0.343471586704254,10.7572241741825
167120,-0.342021465301514,10.9375172909866
167230,-0.34243580698967,11.1178017622973
167340,-0.342642962932587,10.9976034692635
167450,-0.341192841529846,11.6586551762297
167560,-0.342850118875504,11.5985603524595
167670,-0.34305727481842,11.4783707049189
167780,-0.34305727481842,11.2379827643446
167890,-0.34243580698967,11.2980775881149
168000,-0.34305727481842,10.9975948237703
168110,-0.34243580698967,10.9374913545067
168210,-0.34305727481842,10.5769137663919
168320,-0.34243580698967,10.6971034139324
168430,-0.342850118875504,10.997586178277
168540,-0.34305727481842,11.1778706495878
168650,-0.34243580698967,11.4783447684391
168760,-0.34243580698967,11.7788188872904
168870,-0.342228621244431,11.8990171803242
168980,-0.342850118875504,12.1393964754053
169090,-0.342850118875504,12.3797757704864
169200,-0.344300240278244,12.0191981823715
169310,-0.343264430761337,11.7788188872904
169420,-0.341192841529846,12.3196809467161
169520,-0.343264430761337,12.1994912991756
169630,-0.343264430761337,12.1393964754053
169740,-0.343678742647171,12.079301651635
169850,-0.34243580698967,12.0191981823715
169960,-0.343678742647171,12.0191981823715
170070,-0.342642962932587,12.1994826536823
170180,-0.341399997472763,12.2595774774526
170290,-0.344300240278244,11.8389050655674
170400,-0.34305727481842,11.8389050655674
170510,-0.34305727481842,11.959094713108
170620,-0.34305727481842,11.8389050655674
170730,-0.343264430761337,11.6586205942566
170840,-0.342642962932587,11.8989998893377
170940,-0.342642962932587,11.8989998893377
171050,-0.343471586704254,11.7187154180269
171160,-0.343264430761337,11.7788102417972
171270,-0.343471586704254,11.7187154180269
171380,-0.342642962932587,11.7788102417972
171490,-0.34388592839241,11.5985171249931
171600,-0.34305727481842,11.7788015963039
171710,-0.34243580698967,12.1393705389255
171820,-0.34388592839241,12.1994653626957
171930,-0.34305727481842,11.8989825983511
172040,-0.343264430761337,11.5384050102363
172150,-0.343678742647171,11.5384050102363
172250,-0.344507396221161,11.1177325983511
172360,-0.343678742647171,10.697060186466
172470,-0.343264430761337,10.5768705389255
172580,-0.341814309358597,10.8773533032701
172690,-0.341814309358597,11.1778360676147
172800,-0.342850118875504,10.9975429508106
172910,-0.342850118875504,10.697060186466
173020,-0.34243580698967,11.1177325983511
173130,-0.342228621244431,11.5384050102363
173240,-0.34243580698967,11.4783015409727
173350,-0.343678742647171,11.2379222458917
173460,-0.342021465301514,11.3581205389255
173570,-0.34305727481842,11.2379308913849
173670,-0.342850118875504,11.4182153626957
173780,-0.343264430761337,11.3581205389255
173890,-0.343678742647171,11.2379308913849
174000,-0.342642962932587,11.478310186466
174110,-0.342228621244431,11.7186981270403
174220,-0.341399997472763,12.0792757151552
174330,-0.343264430761337,12.0792757151552
174440,-0.342642962932587,11.7186981270403
174550,-0.342021465301514,12.1393705389255
174660,-0.343264430761337,12.0191808913849
174770,-0.341814309358597,12.2595688319593
174880,-0.342021465301514,12.1393791844187
174980,-0.342642962932587,12.0792843606485
175090,-0.342850118875504,12.3797671249931
175200,-0.342228621244431,12.3196723012228
175310,-0.344093084335327,11.959094713108
175420,-0.34243580698967,11.8388964200741
175530,-0.343471586704254,11.7788015963039
175650,-0.342642962932587,11.7788015963039
175750,-0.342228621244431,11.7788015963039
175860,-0.342850118875504,11.5384136557295
175970,-0.343471586704254,11.418224008189
176080,-0.34243580698967,11.3581205389255
176190,-0.342642962932587,10.9975429508106
176300,-0.342228621244431,11.0576464200741
176400,-0.34243580698967,10.636974008189
176510,-0.342021465301514,10.4566895368782
176620,-0.342228621244431,10.7571723012228
176730,-0.343264430761337,10.4566895368782
176840,-0.34305727481842,10.2764050655674
176950,-0.341399997472763,10.4566895368782
177060,-0.342642962932587,10.7571636557295
177170,-0.34243580698967,10.9975429508106
177280,-0.342228621244431,11.1177412438444
177390,-0.34243580698967,10.7571636557295
177500,-0.341814309358597,11.4783188319593
177610,-0.342850118875504,11.5985084794998
177710,-0.343678742647171,10.9374567725336
177820,-0.34243580698967,11.1177412438444
177930,-0.34243580698967,10.9975429508106
178040,-0.34243580698967,10.9975429508106
178150,-0.343471586704254,10.8172584794998
178260,-0.342850118875504,11.0576377745809
178370,-0.34243580698967,11.1177325983511
178480,-0.342850118875504,11.0576377745809
178590,-0.344093084335327,10.697060186466
178700,-0.343264430761337,10.5768705389255
178810,-0.342850118875504,10.5768705389255
178920,-0.34243580698967,10.5167670696619
179030,-0.342850118875504,10.5768618934322
179130,-0.34243580698967,10.4566636003984
179240,-0.342228621244431,10.5167670696619
179350,-0.342850118875504,10.4566722458917
179460,-0.342021465301514,10.2763877745809
179570,-0.342642962932587,10.3364825983511
179680,-0.342642962932587,10.2763877745809
179790,-0.343471586704254,10.0360084794998
179900,-0.342850118875504,10.0961033032701
180020,-0.34243580698967,10.0359998340065
180120,-0.343264430761337,10.0359998340065
180230,-0.344093084335327,9.43503430531733
180340,-0.343678742647171,9.49513777458087
180440,-0.342228621244431,9.4350429508106
180550,-0.342021465301514,9.67543089138494
180660,-0.34305727481842,9.4350429508106
180770,-0.34305727481842,9.49513777458087
180880,-0.343264430761337,9.31485330327007
180990,-0.342228621244431,9.67543089138494
181100,-0.342228621244431,9.61533606761467
181210,-0.342228621244431,9.67543953687822
181320,-0.342642962932587,9.67543953687822
181430,-0.343264430761337,9.07448265368229
181540,-0.343471586704254,8.89419818237149
181650,-0.342228621244431,9.13458612294583
181760,-0.343678742647171,8.95430165163503
181860,-0.342228621244431,9.01440512089858
181970,-0.34305727481842,9.01440512089858
182080,-0.342021465301514,9.13460341393239
182190,-0.342021465301514,9.43508617827699
182300,-0.342642962932587,9.37499135450672
182410,-0.344507396221161,8.89422411885132
182520,-0.342021465301514,9.19470688319593
182630,-0.341814309358597,9.375
182740,-0.343264430761337,9.13462070491894
182850,-0.342850118875504,8.95432758811487
182960,-0.344300240278244,8.53365517622973
183070,-0.34388592839241,8.23317241188513
183180,-0.344300240278244,8.23317241188513
183280,-0.34305727481842,8.2932672356554
183390,-0.342642962932587,7.87259482377027
183500,-0.342642962932587,8.05287929508106
183610,-0.343264430761337,8.05287929508106
183720,-0.343471586704254,8.11297411885132
183830,-0.34243580698967,8.11297411885132
183940,-0.342228621244431,8.53364653073646
184050,-0.34243580698967,8.59374135450672
184160,-0.342228621244431,8.35336205942566
184270,-0.342642962932587,8.83412929508106
184380,-0.343471586704254,8.71393964754053
184490,-0.344093084335327,8.41345688319593
184590,-0.34243580698967,8.59374135450672
184700,-0.34243580698967,8.83412064958778
184810,-0.342021465301514,9.01441376639186
184920,-0.343471586704254,8.7740344713108
185030,-0.34388592839241,8.65383617827699
185140,-0.34243580698967,8.89421547335805
185250,-0.343471586704254,8.89421547335805
185360,-0.343264430761337,8.71393100204725
185470,-0.34243580698967,9.13460341393239
185580,-0.34305727481842,9.13460341393239
185690,-0.34305727481842,8.95431894262159
185800,-0.344093084335327,8.89422411885132
185910,-0.34388592839241,8.65383617827699
186010,-0.343471586704254,8.59374135450672
186120,-0.34388592839241,8.53363788524318
186230,-0.343471586704254,8.83412064958778
186340,-0.34243580698967,9.19468959220937
186450,-0.341814309358597,9.61536200409451
186560,-0.34305727481842,9.25478441597964
186670,-0.343264430761337,8.83411200409451
186780,-0.34305727481842,8.77401718032424
186890,-0.34305727481842,8.71392235655398
187000,-0.34160715341568,8.95431029712831
187110,-0.342228621244431,8.95431029712831
187220,-0.342642962932587,8.89421547335805
187320,-0.342228621244431,9.31488788524318
187430,-0.342850118875504,9.07449994466884
187540,-0.343471586704254,8.95431029712831
187650,-0.342021465301514,9.19469823770265
187760,-0.34160715341568,9.67546547335805
187870,-0.343471586704254,9.73556029712831
187980,-0.342021465301514,9.91585341393239
188090,-0.341814309358597,10.0360430614729
188200,-0.343471586704254,9.43508617827699
188310,-0.344093084335327,9.19469823770265
188420,-0.34305727481842,9.07450859016212
188530,-0.34243580698967,8.95431029712831
188640,-0.343264430761337,8.95431029712831
188740,-0.34243580698967,8.77401718032424
188850,-0.34305727481842,8.47353441597964
188960,-0.343471586704254,8.23315512089858
189070,-0.34305727481842,8.17306029712831
189180,-0.34305727481842,7.93267235655398
189290,-0.342850118875504,8.29324994466884
189400,-0.342850118875504,8.17306029712831
189510,-0.342850118875504,8.35334476843911
189620,-0.343264430761337,8.17306029712831
189730,-0.343678742647171,7.75238788524318
189840,-0.342850118875504,7.75238788524318
189950,-0.342850118875504,7.93267235655398
190050,-0.34388592839241,7.51199994466884
190160,-0.34243580698967,7.57209476843911
190270,-0.34305727481842,7.33170682786477
190380,-0.34388592839241,6.91103441597964
190490,-0.343264430761337,6.55045682786477
190600,-0.341399997472763,6.79083612294583
190710,-0.34243580698967,7.03121541802689
190820,-0.343264430761337,6.97112059425663
190930,-0.343264430761337,6.43025853483096
191040,-0.343471586704254,6.1898792397499
191150,-0.343264430761337,5.94949994466884
191260,-0.344093084335327,5.4086292397499
191370,-0.342850118875504,5.28843959220937
191470,-0.34305727481842,4.92786200409451
191580,-0.344093084335327,4.56728441597964
191690,-0.343471586704254,4.6273792397499
191800,-0.34305727481842,4.44709476843911
191910,-0.342642962932587,4.38699994466884
192020,-0.342021465301514,4.50719823770265
192130,-0.343678742647171,4.44710341393239
192240,-0.342021465301514,4.68749135450672
192350,-0.344300240278244,4.14662929508106
192460,-0.342228621244431,4.32692241188513
192570,-0.343471586704254,4.5072155286892
192680,-0.342642962932587,4.6875
192780,-0.34305727481842,4.62740517622973
192890,-0.342642962932587,4.56731035245947
193000,-0.342642962932587,4.62740517622973
193110,-0.34305727481842,4.44712070491894
193220,-0.343264430761337,4.14663794057434
193330,-0.342228621244431,4.32693105737841
193440,-0.343678742647171,3.84616382172301
193550,-0.342850118875504,3.78606899795275
193660,-0.343264430761337,3.60578452664195
193770,-0.34305727481842,3.72597417418248
193880,-0.343471586704254,3.54568970287169
193990,-0.34388592839241,3.12501729098655
194100,-0.34305727481842,3.18511211475682
194200,-0.34305727481842,3.48559487910142
194310,-0.343678742647171,3.48559487910142
194420,-0.343471586704254,3.12501729098655
194530,-0.34305727481842,2.82453452664195
194640,-0.342642962932587,2.94472417418248
194750,-0.34243580698967,3.12500864549328
194860,-0.343264430761337,3.12500864549328
194970,-0.342021465301514,3.18510346926354
195080,-0.342642962932587,3.06490517622974
195190,-0.342642962932587,2.94470688319593
195300,-0.344093084335327,2.5240344713108
195410,-0.343471586704254,2.46393964754053
195510,-0.341814309358597,2.94470688319593
195620,-0.34243580698967,2.88460341393239
195730,-0.342228621244431,3.30527582581752
195840,-0.344093084335327,2.76440512089858
195950,-0.343471586704254,2.64421547335805
196060,-0.342850118875504,2.40382753278371
196170,-0.34305727481842,2.10334476843911
196280,-0.344093084335327,1.68267235655398
196390,-0.342850118875504,2.16343959220937
196500,-0.34305727481842,1.86295682786477
196610,-0.342021465301514,1.80286200409451
196720,-0.343471586704254,1.74276718032424
196830,-0.34388592839241,1.44228441597964
196930,-0.343471586704254,1.68267235655398
197040,-0.342021465301514,2.22354306147292
197150,-0.342642962932587,2.70431029712831
197260,-0.342850118875504,2.76440512089858
197370,-0.343264430761337,2.58412064958778
197480,-0.34243580698967,2.64421547335805
197590,-0.34243580698967,2.88459476843911
197700,-0.344093084335327,2.70430165163504
197810,-0.343471586704254,2.40382753278371
197920,-0.342642962932587,2.2836292397499
198030,-0.342642962932587,2.22353441597964
198140,-0.343264430761337,1.92305165163504
198240,-0.342642962932587,1.92305165163504
198350,-0.34305727481842,2.04324129917557
198460,-0.343471586704254,2.22353441597964
198570,-0.343264430761337,1.98315512089858
198680,-0.34305727481842,1.80287064958778
198790,-0.343678742647171,1.32210341393239
198900,-0.342850118875504,1.50238788524318
199010,-0.342228621244431,1.98316376639186
199120,-0.34388592839241,1.56249135450672
199230,-0.341399997472763,2.16344823770265
199340,-0.342850118875504,2.28363788524318
199450,-0.344300240278244,1.74277582581752
199560,-0.343264430761337,1.68268100204725
199660,-0.342228621244431,1.92306894262159
199770,-0.343678742647171,2.0432672356554
199880,-0.342850118875504,2.34375
199990,-0.34243580698967,2.64422411885133
200100,-0.343471586704254,2.76442241188513
200210,-0.343264430761337,2.8245172356554
200320,-0.34388592839241,2.40384482377026
200430,-0.343264430761337,1.98317241188513
200540,-0.342021465301514,2.28365517622974
200650,-0.34160715341568,2.76442241188513
200760,-0.34243580698967,2.94470688319593
200870,-0.34305727481842,2.94470688319593
200970,-0.34243580698967,2.70431894262159
201080,-0.344093084335327,2.16344823770265
201190,-0.343678742647171,1.86297411885133
201300,-0.344093084335327,1.32210341393239
201410,-0.343264430761337,1.20191376639186
201520,-0.342228621244431,1.56249135450672
201630,-0.342228621244431,1.50239653073646
201740,-0.34305727481842,1.08172411885133
201850,-0.342228621244431,1.44230170696619
201960,-0.34388592839241,0.901431002047253
202070,-0.34243580698967,0.72113788524318
202180,-0.342228621244431,1.08171547335805
202290,-0.343264430761337,1.32210341393239
202390,-0.342642962932587,1.44229306147292
202500,-0.34305727481842,1.26200859016212
202610,-0.342850118875504,1.38219823770265
202720,-0.343678742647171,1.02162929508106
202830,-0.342642962932587,1.14181894262159
202940,-0.34243580698967,1.44229306147292
203050,-0.34243580698967,1.62257753278371
203160,-0.343471586704254,1.50238788524318
203270,-0.342850118875504,1.50238788524318
203380,-0.343471586704254,1.32210341393239
203490,-0.342642962932587,1.38219823770265
203600,-0.34305727481842,1.44229306147292
203700,-0.34243580698967,1.80286200409451
203810,-0.342642962932587,1.86295682786477
203920,-0.341814309358597,2.16343959220937
204030,-0.34305727481842,2.40382753278371
204140,-0.343471586704254,2.10335341393239
204250,-0.343471586704254,1.98316376639186
204360,-0.34243580698967,2.40383617827699
204470,-0.343678742647171,2.28364653073646
204580,-0.342642962932587,1.92306894262159
204690,-0.342850118875504,1.80287929508106
204800,-0.343471586704254,1.7427844713108
204910,-0.34243580698967,1.98316376639186
205020,-0.342850118875504,2.16344823770265
205120,-0.343471586704254,2.10335341393239
205230,-0.343264430761337,2.34374135450672
205340,-0.342228621244431,2.5240344713108
205450,-0.343471586704254,2.40384482377026
205560,-0.34243580698967,2.88461205942566
205670,-0.34243580698967,3.18508617827699
205780,-0.343264430761337,3.12499135450672
205890,-0.34243580698967,3.18508617827699
206000,-0.34243580698967,3.06488788524318
206110,-0.34243580698967,3.42545682786477
206220,-0.34305727481842,3.12497406352017
206330,-0.34305727481842,3.48555165163504
206430,-0.342228621244431,3.48555165163504
206540,-0.343471586704254,3.48555165163504
206650,-0.342642962932587,3.48555165163504
206760,-0.342228621244431,3.72593959220937
206870,-0.34243580698967,3.78603441597964
206980,-0.342021465301514,3.96632753278371
207090,-0.343471586704254,3.84613788524318
207200,-0.34305727481842,3.90623270901345
207310,-0.342021465301514,3.96632753278371
207420,-0.343471586704254,4.02642235655398
207530,-0.342850118875504,4.02642235655398
207640,-0.342642962932587,4.20670682786477
207750,-0.342642962932587,4.3268964754053
207850,-0.34243580698967,4.62737059425663
207960,-0.342850118875504,4.92785335860123
208070,-0.34305727481842,4.92785335860123
208180,-0.34243580698967,5.10813782991202
208290,-0.344093084335327,4.98793953687822
208400,-0.342850118875504,5.16822400818901
208510,-0.344093084335327,4.86774124384441
208620,-0.344093084335327,4.44706883195928
208730,-0.343471586704254,4.14659471310795
208840,-0.342228621244431,4.44707747745255
208950,-0.34388592839241,3.90620677253361
209060,-0.342850118875504,3.84611194876335
209160,-0.34305727481842,3.72592230122282
209270,-0.341814309358597,4.38698265368229
209380,-0.343471586704254,4.38698265368229
209490,-0.34305727481842,4.02640506556742
209600,-0.344093084335327,3.54563782991202
209710,-0.343264430761337,3.24515506556742
209820,-0.342850118875504,3.60573265368229
209930,-0.342850118875504,3.78601712499308
210040,-0.342228621244431,3.96631024179716
210150,-0.342642962932587,4.08649988933769
210260,-0.343678742647171,4.20669818237149
210370,-0.34243580698967,4.32688782991202
210480,-0.343471586704254,4.20669818237149
210580,-0.341399997472763,4.38698265368229
210690,-0.343678742647171,4.32688782991202
210800,-0.343264430761337,4.5071809467161
210910,-0.34243580698967,4.80765506556742
211020,-0.344093084335327,4.20668953687822
211130,-0.34305727481842,4.08649988933769
211240,-0.342850118875504,4.08649988933769
211350,-0.343264430761337,4.08649988933769
211460,-0.342228621244431,4.14660335860123
211570,-0.343678742647171,3.78603441597964
211680,-0.343471586704254,3.96632753278371
211790,-0.342642962932587,4.20670682786477
211890,-0.343264430761337,4.02642235655398
212000,-0.343471586704254,3.78604306147292
212110,-0.342642962932587,3.96632753278371
212220,-0.342850118875504,3.90623270901345
212330,-0.342850118875504,3.96632753278371
212440,-0.34243580698967,4.26680165163504
212550,-0.344093084335327,4.0264137110607
212660,-0.343264430761337,3.96631888729043
212770,-0.342021465301514,4.44708612294583
212880,-0.343264430761337,4.3268964754053
212990,-0.341814309358597,4.44708612294583
213100,-0.342850118875504,4.74756888729043
213210,-0.34243580698967,4.44708612294583
213310,-0.34305727481842,4.38699129917557
213420,-0.34388592839241,4.5071809467161
213530,-0.342021465301514,4.86775853483096
213640,-0.342642962932587,4.74756024179716
213750,-0.34243580698967,5.10812918441875
213860,-0.342642962932587,5.16822400818901
213970,-0.343471586704254,4.86774988933769
214080,-0.343471586704254,4.86774988933769
214190,-0.34305727481842,4.92784471310795
214300,-0.342850118875504,5.22832747745255
214410,-0.342021465301514,5.58890506556742
214520,-0.343264430761337,5.22832747745255
214620,-0.342642962932587,4.92784471310795
214730,-0.34388592839241,4.50717230122282
214840,-0.34305727481842,4.50717230122282
214950,-0.342642962932587,4.44707747745255
215060,-0.34243580698967,4.92784471310795
215170,-0.34243580698967,5.28841365572954
215280,-0.343471586704254,5.46870677253361
215390,-0.343264430761337,5.46870677253361
215500,-0.34305727481842,5.22831883195928
215610,-0.34243580698967,5.16821536269573
215720,-0.342850118875504,5.228310186466
215830,-0.34305727481842,4.98792224589166
215940,-0.342642962932587,5.34849983400653
216040,-0.343678742647171,4.98793089138494
216150,-0.34243580698967,4.9278274221214
216260,-0.34305727481842,4.98792224589166
216370,-0.34305727481842,4.86773259835113
216480,-0.342642962932587,4.98792224589166
216590,-0.342642962932587,5.04801706966193
216700,-0.343678742647171,5.04801706966193
216810,-0.342850118875504,4.98792224589166
216920,-0.342021465301514,5.10812053892547
217030,-0.342850118875504,4.98793089138494
217140,-0.343264430761337,5.0480257151552
217250,-0.342850118875504,5.0480257151552
217350,-0.342850118875504,5.228310186466
217460,-0.343678742647171,4.92783606761467
217570,-0.342850118875504,4.98793089138494
217680,-0.341192841529846,5.34850847949981
217790,-0.343471586704254,5.10812918441875
217900,-0.34305727481842,4.74755159630388
218010,-0.342642962932587,4.86774124384441
218120,-0.343471586704254,4.86774124384441
218230,-0.34305727481842,4.98793089138494
218340,-0.34160715341568,5.22831883195928
218450,-0.342228621244431,5.64899124384441
218560,-0.34305727481842,5.52880159630388
218670,-0.34243580698967,5.64899124384441
218770,-0.343471586704254,5.64899124384441
218880,-0.345128864049912,4.86774988933769
218990,-0.342642962932587,4.92784471310795
219100,-0.342228621244431,5.28842230122282
219210,-0.342228621244431,5.58890506556742
219320,-0.34243580698967,5.52880159630388
219430,-0.342850118875504,5.70908606761467
219540,-0.343264430761337,5.46870677253361
219650,-0.34305727481842,5.28842230122282
219760,-0.34243580698967,5.52880159630388
219870,-0.342850118875504,5.40861194876335
219980,-0.343471586704254,5.10813782991202
220080,-0.34305727481842,4.92785335860123
220190,-0.34388592839241,4.68746541802689
220300,-0.343471586704254,4.56727577048636
220410,-0.34388592839241,4.08649988933769
220520,-0.343678742647171,4.02640506556742
220630,-0.341399997472763,4.38698265368229
220740,-0.343264430761337,4.08649988933769
220850,-0.34388592839241,3.66582747745255
220960,-0.34305727481842,3.36534471310795
221070,-0.34305727481842,3.48553436064848
221180,-0.343678742647171,3.30524988933769
221290,-0.34388592839241,2.76437918441875
221400,-0.342642962932587,3.00475847949981
221500,-0.342642962932587,3.06485330327007
221610,-0.34305727481842,2.94466365572954
221720,-0.342642962932587,2.94466365572954
221830,-0.34243580698967,2.94466365572954
221940,-0.343264430761337,2.82447400818901
222050,-0.344300240278244,2.46389642007414
222160,-0.343471586704254,2.16342230122282
222300,-0.34243580698967,2.64418953687822
222410,-0.344093084335327,2.28361194876335
222520,-0.34305727481842,2.58409471310795
222630,-0.342850118875504,2.94467230122282
222740,-0.34388592839241,2.82447400818901
222850,-0.344093084335327,2.28360330327007
222960,-0.34305727481842,2.52399124384441
223060,-0.34388592839241,2.22350847949981
223170,-0.343264430761337,2.16341365572954
223280,-0.34305727481842,1.80283606761467
223390,-0.342850118875504,1.98312053892547
223500,-0.34388592839241,1.74273259835113
223610,-0.34305727481842,2.04321536269573
223720,-0.342021465301514,2.4037929508106
223830,-0.34388592839241,2.103310186466
223940,-0.344093084335327,1.74273259835113
224050,-0.34305727481842,1.50234465777679
224160,-0.34305727481842,1.38215501023626
224270,-0.342228621244431,1.8028274221214
224370,-0.342021465301514,1.9230257151552
224480,-0.34160715341568,2.46388777458087
224590,-0.343264430761337,1.9230257151552
224700,-0.342642962932587,2.22349983400653
224810,-0.343264430761337,2.22349983400653
224920,-0.343678742647171,1.86293089138494
225030,-0.343264430761337,2.10331883195928
225140,-0.343264430761337,2.04322400818901
225250,-0.342642962932587,2.10331883195928
225360,-0.34305727481842,2.16341365572954
225470,-0.342021465301514,2.22350847949981
225580,-0.343264430761337,2.34369812704034
225690,-0.343678742647171,2.28360330327007
225790,-0.343471586704254,2.04322400818901
225900,-0.34388592839241,1.86293089138494
226010,-0.344300240278244,1.6225429508106
226120,-0.343264430761337,1.44225847949981
226230,-0.34388592839241,1.1417757151552
226340,-0.343264430761337,1.02158606761467
226450,-0.343264430761337,0.781206772533614
226560,-0.343471586704254,0.961499889337686
226670,-0.342642962932587,1.14178436064848
226780,-0.342642962932587,0.961491243844409
226890,-0.343471586704254,0.901396420074144
227000,-0.34305727481842,0.540818831959276
227100,-0.343471586704254,0.360534360648481
227210,-0.342642962932587,0.300439536878216
227320,-0.343471586704254,0.180249889337686
227430,-0.342228621244431,0.661025770486361
227540,-0.343471586704254,0.240353358601228
227650,-0.34305727481842,0.120163711060698
227760,-0.343678742647171,0
227870,-0.342021465301514,0
227980,-0.341814309358597,0.420655120898578
228090,-0.343471586704254,0.420655120898578
228200,-0.343471586704254,0.300465473358048
228310,-0.342642962932587,0.360560297128313
228420,-0.34305727481842,0.0600775327837105
228520,-0.343471586704254,0
228630,-0.34305727481842,0
228740,-0.342228621244431,0.36056894262159
228850,-0.34077849984169,1.02162929508106
228960,-0.340985685586929,1.50239653073646
229070,-0.343471586704254,1.20192241188513
229180,-0.343264430761337,0.961543116804072
229290,-0.344300240278244,0.721155176229735
229400,-0.342850118875504,0.841344823770265
229510,-0.342642962932587,0.961534471310795
229620,-0.343264430761337,0.721155176229735
229730,-0.34243580698967,0.841344823770265
229830,-0.34160715341568,1.2620172356554
229940,-0.343471586704254,1.02163794057434
230050,-0.34305727481842,1.20192241188513
230160,-0.34388592839241,0.78125
230270,-0.343471586704254,0.66106035245947
230380,-0.343678742647171,0.480775881148675
230490,-0.343264430761337,0.30049140983788
230600,-0.342228621244431,0.420689702871687
230710,-0.342642962932587,0.721163821723012
230820,-0.344093084335327,0.360586233608145
230930,-0.343678742647171,0
231040,-0.34305727481842,0
231150,-0.34388592839241,0
231250,-0.343264430761337,0
231360,-0.342642962932587,0
231470,-0.343471586704254,0
231580,-0.342228621244431,0
231690,-0.34243580698967,0
231800,-0.342850118875504,0
231910,-0.34305727481842,0
232020,-0.342642962932587,0
232130,-0.342642962932587,0
232240,-0.342850118875504,0
232350,-0.343471586704254,0
232460,-0.344093084335327,0
232560,-0.344507396221161,0
232670,-0.34305727481842,0
232780,-0.342021465301514,0
232890,-0.34243580698967,0
233000,-0.342228621244431,0
233110,-0.34305727481842,0
233220,-0.34243580698967,0
233330,-0.342642962932587,0
233440,-0.34305727481842,0
233550,-0.342642962932587,0
233660,-0.343471586704254,0
233770,-0.343471586704254,0
233880,-0.342642962932587,0
233980,-0.34388592839241,0
234090,-0.34243580698967,0
234200,-0.34305727481842,0
234310,-0.342850118875504,0
234420,-0.342021465301514,0
234530,-0.341814309358597,0.540853413932385
234640,-0.342850118875504,0.120181002047253
234750,-0.342021465301514,0.48075859016212
234860,-0.342228621244431,0.961534471310795
234970,-0.343471586704254,0.841344823770265
235080,-0.342642962932587,0.961534471310795
235190,-0.34243580698967,1.32210341393239
235290,-0.342228621244431,1.80287929508106
235400,-0.343264430761337,1.62259482377026
235510,-0.342850118875504,1.5625
235620,-0.343264430761337,1.50240517622974
235730,-0.34243580698967,1.5625
235840,-0.343264430761337,1.32212070491894
235950,-0.343264430761337,1.32212070491894
236060,-0.34243580698967,1.8629827643446
236170,-0.342021465301514,2.28365517622974
236280,-0.343471586704254,1.98318105737841
236390,-0.343264430761337,2.22356899795275
236500,-0.342642962932587,2.34375864549328
236610,-0.34388592839241,2.04327588114867
236710,-0.34305727481842,2.28366382172301
236820,-0.342642962932587,2.70433623360814
236930,-0.343264430761337,2.64424140983788
237040,-0.343264430761337,2.82453452664195
237150,-0.341399997472763,3.36539658606761
237260,-0.343264430761337,3.30530176229735
237370,-0.342228621244431,3.48559487910142
237480,-0.343678742647171,3.54569834836496
237590,-0.34388592839241,3.30531040779063
237700,-0.34388592839241,2.76443970287169
237810,-0.34305727481842,3.00482764344602
237920,-0.34243580698967,3.48559487910142
238020,-0.343471586704254,3.36540523156089
238130,-0.342642962932587,3.48559487910142
238240,-0.343471586704254,3.12501729098655
238350,-0.342850118875504,2.88462935041222
238460,-0.343678742647171,2.28367246721629
238570,-0.342850118875504,2.40386211475682
238680,-0.344507396221161,1.86300005533116
238790,-0.343264430761337,1.86300005533116
238900,-0.343264430761337,1.98318970287169
239010,-0.343264430761337,1.98318970287169
239120,-0.344300240278244,1.68270693852708
239230,-0.343678742647171,1.38223281967576
239340,-0.344300240278244,1.02165523156089
239440,-0.343678742647171,0.540887995905494
239550,-0.34243580698967,0.781267290986555
239660,-0.342850118875504,1.02164658606761
239770,-0.34388592839241,0.901448293033807
239880,-0.342228621244431,1.38222417418248
239990,-0.342642962932587,1.86299140983788
240100,-0.343264430761337,1.86299140983788
240210,-0.343264430761337,2.04328452664195
240320,-0.343264430761337,2.04328452664195
240430,-0.343678742647171,1.92309487910142
240540,-0.343471586704254,1.92309487910142
240650,-0.34243580698967,1.98318970287169
240750,-0.342850118875504,1.92309487910142
240860,-0.343471586704254,1.92309487910142
240970,-0.342642962932587,2.04328452664195
241080,-0.342850118875504,2.22356899795275
241190,-0.34243580698967,2.28366382172301
241300,-0.342850118875504,2.46394829303381
241410,-0.343678742647171,2.04327588114867
241520,-0.342850118875504,2.22356035245947
241630,-0.34388592839241,1.98317241188513
241740,-0.343264430761337,2.10336205942566
241850,-0.343264430761337,1.7427844713108
241960,-0.344300240278244,1.02162929508106
242070,-0.34305727481842,1.14181894262159
242170,-0.34243580698967,1.44229306147292
242280,-0.342850118875504,1.38219823770265
242390,-0.34243580698967,1.56248270901345
242500,-0.342228621244431,1.92306029712831
242610,-0.343264430761337,1.86296547335805
242720,-0.34305727481842,1.62257753278371
242830,-0.342228621244431,1.20190512089858
242940,-0.343264430761337,0.540853413932385
243050,-0.343264430761337,0.60094823770265
243160,-0.343471586704254,0.540853413932385
243270,-0.343471586704254,0.781241354506723
243380,-0.34388592839241,0.48075859016212
243480,-0.344093084335327,0.0600861782769878
243590,-0.343678742647171,0
243700,-0.34305727481842,0
243810,-0.343264430761337,0
243920,-0.343471586704254,0
244030,-0.342228621244431,0
244140,-0.342850118875504,0
244250,-0.34305727481842,0
244360,-0.344093084335327,0
244470,-0.343471586704254,0
244580,-0.343471586704254,0
244690,-0.343264430761337,0
244800,-0.34305727481842,0
244900,-0.34305727481842,0
245010,-0.34388592839241,0
245120,-0.34388592839241,0
245230,-0.34243580698967,0
245340,-0.344507396221161,0
245450,-0.342021465301514,0
245560,-0.342850118875504,0
245670,-0.344093084335327,0
245780,-0.34305727481842,0
245890,-0.343678742647171,0
246000,-0.34388592839241,0
246110,-0.342642962932587,0
246210,-0.34305727481842,0
246320,-0.34305727481842,0
246430,-0.343264430761337,0
246540,-0.342850118875504,0
246650,-0.34243580698967,0
246760,-0.342850118875504,0
246870,-0.344507396221161,0
246980,-0.343471586704254,0
247090,-0.344300240278244,0
247200,-0.342642962932587,0
247310,-0.34305727481842,0
247420,-0.34305727481842,0
247530,-0.34243580698967,0
247630,-0.342642962932587,0
247740,-0.343264430761337,0
247850,-0.343264430761337,0
247960,-0.34243580698967,0
248070,-0.342021465301514,0
248180,-0.343471586704254,0
248290,-0.342642962932587,0
248400,-0.342642962932587,0
248510,-0.342021465301514,0
248620,-0.342850118875504,0
248730,-0.34388592839241,0
248840,-0.34305727481842,0
248940,-0.344093084335327,0
249050,-0.342850118875504,0
249160,-0.343471586704254,0
249270,-0.342850118875504,0
249380,-0.343264430761337,0
249490,-0.342228621244431,0
249600,-0.343264430761337,0
249710,-0.344300240278244,0
249820,-0.343471586704254,0
249930,-0.34305727481842,0
250040,-0.343264430761337,0
250150,-0.343471586704254,0
250260,-0.34305727481842,0
250360,-0.34243580698967,0
250470,-0.343264430761337,0
250580,-0.342850118875504,0
250690,-0.343678742647171,0
250800,-0.344093084335327,0
250910,-0.342228621244431,0
251020,-0.343678742647171,0
251130,-0.344921708106995,0
251240,-0.344507396221161,0
251350,-0.343471586704254,0
251460,-0.341814309358597,0
251570,-0.343471586704254,0
251670,-0.341814309358597,0
251780,-0.34305727481842,0
251890,-0.34243580698967,0
252000,-0.34305727481842,0
252110,-0.342228621244431,0
252220,-0.34305727481842,0
252330,-0.342228621244431,0
252440,-0.342850118875504,0
252550,-0.34305727481842,0
252660,-0.341814309358597,0
252770,-0.343471586704254,0
252880,-0.342850118875504,0
252990,-0.34305727481842,0
253090,-0.343471586704254,0
253200,-0.343678742647171,0
253310,-0.34243580698967,0
253420,-0.34243580698967,0
253530,-0.342642962932587,0
253640,-0.343264430761337,0
253750,-0.342850118875504,0
253860,-0.342642962932587,0
253970,-0.34305727481842,0
254080,-0.343678742647171,0
254190,-0.342850118875504,0
254300,-0.342228621244431,0
254400,-0.343678742647171,0
254510,-0.34305727481842,0
254620,-0.343678742647171,0
254730,-0.34305727481842,0
254840,-0.34305727481842,0
254950,-0.343264430761337,0
255060,-0.343471586704254,0
255170,-0.342850118875504,0
255280,-0.343678742647171,0
255390,-0.342850118875504,0
255500,-0.343264430761337,0
255610,-0.342642962932587,0
255720,-0.342642962932587,0
255820,-0.342021465301514,0
255930,-0.343471586704254,0
256040,-0.343264430761337,0
256150,-0.343264430761337,0
256260,-0.34243580698967,0
256370,-0.343264430761337,0
256480,-0.343471586704254,0
256590,-0.342850118875504,0
256700,-0.342850118875504,0
256810,-0.342850118875504,0
256920,-0.344507396221161,0
257030,-0.34243580698967,0
257130,-0.34388592839241,0
257240,-0.342850118875504,0
257350,-0.343471586704254,0
257460,-0.341399997472763,0
257570,-0.342642962932587,0
257680,-0.34388592839241,0
257790,-0.344507396221161,0
257900,-0.342850118875504,0
258010,-0.342228621244431,0
258120,-0.343678742647171,0
258230,-0.343471586704254,0
258340,-0.343264430761337,0
258450,-0.342228621244431,0
258550,-0.342642962932587,0
258660,-0.34305727481842,0
258770,-0.343264430761337,0
258880,-0.34160715341568,0
258990,-0.343264430761337,0
259100,-0.343678742647171,0
259210,-0.343264430761337,0
259320,-0.34243580698967,0
259430,-0.34388592839241,0
259540,-0.34305727481842,0
259650,-0.34305727481842,0
259760,-0.342021465301514,0
259860,-0.34305727481842,0
259970,-0.343471586704254,0.0601207602500968
260080,-0.343471586704254,0
260190,-0.342850118875504,0
260300,-0.342642962932587,2.59364798317933E-05
260410,-0.343471586704254,0
260520,-0.342642962932587,2.59364798317933E-05
260630,-0.34305727481842,0
260740,-0.34388592839241,0
260850,-0.342642962932587,0.0601207602500968
260960,-0.34243580698967,0.360594879101422
261070,-0.342850118875504,0.781267290986555
261180,-0.342850118875504,0.721172467216289
261280,-0.342850118875504,0.781267290986555
261390,-0.34160715341568,1.20193970287169
261500,-0.342228621244431,1.26204317213523
261610,-0.34305727481842,1.1418535245947
261720,-0.34305727481842,1.20194834836496
261830,-0.34305727481842,1.26204317213523
261940,-0.342850118875504,1.1418535245947
262050,-0.342642962932587,0.961560407790627
262160,-0.343471586704254,0.961560407790627
262270,-0.341399997472763,1.32213799590549
262380,-0.342021465301514,1.50243111270957
262490,-0.34243580698967,1.38223281967576
262600,-0.34243580698967,1.50242246721629
262700,-0.34388592839241,1.50242246721629
262810,-0.342228621244431,1.74281040779063
262920,-0.34243580698967,2.22357764344602
263030,-0.345128864049912,1.56252593647983
263140,-0.344093084335327,1.38223281967576
263250,-0.347200483083725,0.120215584020362
263360,-0.346786171197891,0
263470,-0.349479228258133,0
263580,-0.348236292600632,0
263690,-0.343678742647171,0
263800,-0.343471586704254,0
263910,-0.343678742647171,0
264010,-0.34305727481842,0
264120,-0.34160715341568,0
264230,-0.344300240278244,0
264340,-0.343471586704254,0
264450,-0.34388592839241,0
264560,-0.34305727481842,0
264670,-0.342850118875504,0
264780,-0.34243580698967,0
264890,-0.34160715341568,0
265000,-0.34305727481842,0
265110,-0.343678742647171,0
265220,-0.34305727481842,0
265330,-0.342228621244431,0
265430,-0.342850118875504,0
265540,-0.342642962932587,0
265650,-0.34305727481842,0
265760,-0.342021465301514,0
265870,-0.341814309358597,0
265980,-0.343471586704254,0
266090,-0.34388592839241,0
266200,-0.343264430761337,0
266310,-0.342228621244431,0
266420,-0.34305727481842,0
266530,-0.341399997472763,0
266640,-0.343264430761337,0
266740,-0.34243580698967,0
266850,-0.342850118875504,0
266960,-0.342642962932587,0
267070,-0.34388592839241,0
267180,-0.342021465301514,0
267290,-0.342850118875504,0
267400,-0.343471586704254,0
267510,-0.342228621244431,0
267620,-0.343471586704254,0
267730,-0.344093084335327,0
267840,-0.342850118875504,0
267950,-0.343264430761337,0
268060,-0.341399997472763,0
268160,-0.342021465301514,0
268270,-0.342642962932587,0
268380,-0.34305727481842,0
268490,-0.344300240278244,0
268600,-0.343678742647171,0
268710,-0.343264430761337,0
268820,-0.34305727481842,0
268930,-0.342642962932587,0
269040,-0.342228621244431,0
269150,-0.343264430761337,0
269260,-0.34388592839241,0
269370,-0.343264430761337,0
269470,-0.343471586704254,0
269580,-0.34243580698967,0
269690,-0.34305727481842,0
269800,-0.342850118875504,0
269910,-0.344093084335327,0
270020,-0.343264430761337,0
270130,-0.344300240278244,0
270240,-0.342228621244431,0
270350,-0.34388592839241,0
270460,-0.34243580698967,0
270570,-0.344093084335327,0
270680,-0.342228621244431,0
270790,-0.34388592839241,0
270890,-0.343264430761337,0
271000,-0.34243580698967,0
271110,-0.342850118875504,0
271220,-0.342850118875504,0
271330,-0.344093084335327,0
271440,-0.343264430761337,0
271550,-0.343678742647171,0
271660,-0.34243580698967,0
271770,-0.343678742647171,0
271880,-0.343264430761337,0
271990,-0.343678742647171,0
272100,-0.342642962932587,0
272200,-0.342021465301514,0
272310,-0.343264430761337,0
272420,-0.342642962932587,0
272530,-0.342642962932587,0
272640,-0.343471586704254,0
272750,-0.343264430761337,0
272860,-0.34243580698967,0
272970,-0.343471586704254,0
273080,-0.342021465301514,0
273190,-0.343471586704254,0
273300,-0.343471586704254,0
273410,-0.342642962932587,0
273520,-0.342850118875504,0
273620,-0.342228621244431,0
273730,-0.343678742647171,0
273840,-0.341814309358597,0
273950,-0.34305727481842,0
274060,-0.34305727481842,0
274170,-0.343264430761337,0
274280,-0.343264430761337,0
274390,-0.34305727481842,0
274500,-0.34305727481842,0
274610,-0.34388592839241,0
274720,-0.344300240278244,0
274830,-0.34388592839241,0
274930,-0.343678742647171,0
275040,-0.342850118875504,0
275150,-0.343471586704254,0
275260,-0.343471586704254,0
275370,-0.342228621244431,0
275480,-0.344093084335327,0
275590,-0.343678742647171,0
275700,-0.34388592839241,0
275810,-0.343471586704254,0
275920,-0.342642962932587,0
276030,-0.342642962932587,0
276140,-0.344300240278244,0
276250,-0.342850118875504,0
276350,-0.343264430761337,0
276460,-0.34305727481842,0
276570,-0.343264430761337,0
276680,-0.34243580698967,0
276790,-0.343471586704254,0
276900,-0.343264430761337,0
277010,-0.344093084335327,0
277120,-0.343264430761337,0
277230,-0.34388592839241,0
277340,-0.342850118875504,0
277450,-0.341399997472763,0
277560,-0.34243580698967,0
277660,-0.343471586704254,0
277770,-0.342642962932587,0
277880,-0.344714552164078,0
277990,-0.342850118875504,0
278100,-0.34243580698967,0
278210,-0.342228621244431,0
278320,-0.343264430761337,0
278430,-0.342850118875504,0.180284471310795
278540,-0.342642962932587,0.300474118851325
278650,-0.343264430761337,0.180284471310795
278760,-0.343264430761337,0
278870,-0.343264430761337,0
278980,-0.343471586704254,0
279080,-0.34305727481842,0
279190,-0.341814309358597,0
279300,-0.342642962932587,0
279410,-0.34388592839241,0
279520,-0.34388592839241,0
279630,-0.342850118875504,0
279740,-0.344300240278244,0
279850,-0.34388592839241,0
279960,-0.342642962932587,0
280070,-0.343264430761337,0
280180,-0.342228621244431,0
280290,-0.34243580698967,0
280390,-0.342850118875504,0
280500,-0.345128864049912,0
280610,-0.342021465301514,0
280720,-0.342021465301514,0
280830,-0.34305727481842,0
280940,-0.342850118875504,0
281050,-0.343471586704254,0
281160,-0.343471586704254,0
281270,-0.34305727481842,0
281380,-0.342850118875504,0
281490,-0.343264430761337,0
281600,-0.343264430761337,0
281710,-0.342642962932587,0
281810,-0.34388592839241,0
281920,-0.344507396221161,0
282030,-0.343264430761337,0
282140,-0.34388592839241,0
282250,-0.343264430761337,0
282360,-0.342021465301514,0
282470,-0.34305727481842,0
282580,-0.34243580698967,0
282690,-0.342021465301514,0
282800,-0.34388592839241,0
282910,-0.342642962932587,0
283020,-0.343264430761337,0
283120,-0.343264430761337,0
283230,-0.343471586704254,0
283340,-0.34388592839241,0
283450,-0.342850118875504,0
283560,-0.342642962932587,0
283670,-0.34388592839241,0
283780,-0.342850118875504,0
283890,-0.343471586704254,0
284000,-0.342850118875504,0
284110,-0.343264430761337,0
284220,-0.342850118875504,0
284330,-0.342021465301514,0
284440,-0.343264430761337,0
284540,-0.343264430761337,0
284650,-0.344300240278244,0
284760,-0.34243580698967,0
284870,-0.344300240278244,0
284980,-0.34305727481842,0
285090,-0.342642962932587,0
285200,-0.34305727481842,0
285310,-0.342642962932587,0
285420,-0.342850118875504,0
285530,-0.343471586704254,0
285640,-0.342850118875504,0
285750,-0.342850118875504,0
285850,-0.344300240278244,0
285960,-0.34305727481842,0
286070,-0.342642962932587,0
286180,-0.343471586704254,0
286290,-0.342228621244431,0
286400,-0.343678742647171,0
286510,-0.343678742647171,0
286620,-0.344507396221161,0
286730,-0.344507396221161,0
286840,-0.342850118875504,0
286950,-0.343471586704254,0
287060,-0.34388592839241,0
287170,-0.343264430761337,0
287270,-0.342228621244431,0
287380,-0.34243580698967,0
287490,-0.34305727481842,0
287600,-0.342228621244431,0
287710,-0.342228621244431,0
287820,-0.343471586704254,0
287930,-0.342850118875504,0
288040,-0.342850118875504,0
288150,-0.342850118875504,0
288260,-0.343471586704254,0
288370,-0.343471586704254,0
288480,-0.344093084335327,0
288580,-0.342228621244431,0
288690,-0.343264430761337,0
288800,-0.342642962932587,0
288910,-0.343471586704254,0
289020,-0.34243580698967,0
289130,-0.343678742647171,0
289240,-0.34160715341568,0
289350,-0.343678742647171,0
289460,-0.342850118875504,0
289570,-0.342228621244431,0
289680,-0.342228621244431,0
289790,-0.343678742647171,0
289900,-0.34305727481842,0
290000,-0.34243580698967,0
290110,-0.344300240278244,0
290220,-0.342850118875504,0
290330,-0.344714552164078,0
290440,-0.342642962932587,0
290550,-0.342850118875504,0
290660,-0.343264430761337,0
290770,-0.34243580698967,0
290880,-0.342850118875504,0
290990,-0.34243580698967,0
291100,-0.343471586704254,0
291210,-0.34388592839241,0
291310,-0.343471586704254,0
291420,-0.34243580698967,0
291530,-0.34305727481842,0
291640,-0.34305727481842,0
291750,-0.342021465301514,0
291860,-0.343678742647171,0
291970,-0.34388592839241,0
292080,-0.343678742647171,0
292190,-0.343678742647171,0
292300,-0.343471586704254,0
292410,-0.34243580698967,0
292520,-0.342850118875504,0
292630,-0.343678742647171,0
292730,-0.343471586704254,0
292840,-0.342850118875504,0
292950,-0.343264430761337,0
293060,-0.344093084335327,0
293170,-0.343471586704254,0
293280,-0.343678742647171,0
293390,-0.343264430761337,0
293500,-0.343264430761337,0
293610,-0.343264430761337,0
293720,-0.34305727481842,0
293830,-0.343471586704254,0
293940,-0.34305727481842,0
294040,-0.343678742647171,0
294150,-0.344300240278244,0
294260,-0.34305727481842,0
294370,-0.343471586704254,0
294480,-0.343471586704254,0
294590,-0.344093084335327,0
294700,-0.342850118875504,0
294810,-0.343471586704254,0
294920,-0.343264430761337,0
295030,-0.34388592839241,0
295140,-0.343264430761337,0
295250,-0.343678742647171,0
295360,-0.344300240278244,0
295460,-0.342642962932587,0
295570,-0.342850118875504,0
295680,-0.342228621244431,0
295790,-0.34388592839241,0
295900,-0.343471586704254,0
296010,-0.342642962932587,0
296120,-0.344093084335327,0
296230,-0.34305727481842,0
296340,-0.34243580698967,0
296450,-0.342850118875504,0
296560,-0.343678742647171,0
296670,-0.34388592839241,0
296770,-0.343264430761337,0
296880,-0.34305727481842,0
296990,-0.344093084335327,0
297100,-0.343678742647171,0
297210,-0.342642962932587,0
297320,-0.342850118875504,0
297430,-0.343678742647171,0
297540,-0.34160715341568,0
297650,-0.34305727481842,0
297760,-0.342021465301514,0
297870,-0.344093084335327,0
297980,-0.343264430761337,0
298090,-0.343471586704254,0
298190,-0.34388592839241,0
298300,-0.34305727481842,0
298410,-0.343471586704254,0
298520,-0.343264430761337,0
298630,-0.342228621244431,0
298740,-0.343678742647171,0
298850,-0.34388592839241,0
298960,-0.342642962932587,0
299070,-0.343678742647171,0
299180,-0.342850118875504,0
299290,-0.343678742647171,0
299400,-0.34243580698967,0
299500,-0.34388592839241,0
299610,-0.344300240278244,0
299720,-0.342850118875504,0
299830,-0.344300240278244,0
299940,-0.343264430761337,0
300050,-0.343264430761337,0
300160,-0.342850118875504,0
300270,-0.34305727481842,0
300380,-0.343264430761337,0
300490,-0.343471586704254,0
300600,-0.343264430761337,0
300710,-0.34388592839241,0
300820,-0.343678742647171,0
300920,-0.343264430761337,0
301030,-0.34305727481842,0
301140,-0.343678742647171,0
301250,-0.343264430761337,0
301360,-0.342642962932587,0
301470,-0.342228621244431,0
301580,-0.343264430761337,0
301690,-0.343264430761337,0
301800,-0.34243580698967,0
301910,-0.34305727481842,0
302020,-0.342228621244431,0
302130,-0.342642962932587,0
302230,-0.343264430761337,0
302340,-0.344093084335327,0
302450,-0.34243580698967,0
302560,-0.342850118875504,0
302670,-0.34305727481842,0
302780,-0.343678742647171,0
302890,-0.342642962932587,0
303000,-0.34305727481842,0
303110,-0.34388592839241,0
303220,-0.343678742647171,0
303330,-0.343678742647171,0
303440,-0.343264430761337,0
303550,-0.343471586704254,0
303650,-0.34305727481842,0
303760,-0.34243580698967,0
303870,-0.344507396221161,0
303980,-0.343678742647171,0
304090,-0.342642962932587,0
304200,-0.344921708106995,0
304310,-0.342642962932587,0
304420,-0.342850118875504,0
304530,-0.343678742647171,0
304640,-0.343264430761337,0
304750,-0.341192841529846,0
304860,-0.343471586704254,0
304960,-0.343471586704254,0
305070,-0.344093084335327,0
305180,-0.34305727481842,0
305290,-0.34243580698967,0
305400,-0.343264430761337,0
305510,-0.34243580698967,0
305620,-0.343264430761337,0
305730,-0.343678742647171,0
305840,-0.343264430761337,0
305950,-0.343264430761337,0
306060,-0.34305727481842,0
306170,-0.342850118875504,0
306280,-0.34305727481842,0
306380,-0.342228621244431,0
306490,-0.343471586704254,0
306600,-0.343471586704254,0
306710,-0.344714552164078,0
306820,-0.342850118875504,0
306930,-0.34305727481842,0
307040,-0.34305727481842,0
307150,-0.34243580698967,0
307260,-0.34388592839241,0
307370,-0.34388592839241,0
307480,-0.343678742647171,0
307590,-0.342228621244431,0
307690,-0.344300240278244,0
307800,-0.34305727481842,0
307910,-0.343264430761337,0
308020,-0.343264430761337,0
308130,-0.343264430761337,0
308240,-0.343264430761337,0
308350,-0.343264430761337,0
308460,-0.343678742647171,0
308570,-0.343264430761337,0
308680,-0.343471586704254,0
308790,-0.341399997472763,0
308900,-0.34243580698967,0
309010,-0.343264430761337,0
309110,-0.34388592839241,0
309220,-0.344093084335327,0
309330,-0.344300240278244,0
309440,-0.34243580698967,0
309550,-0.343264430761337,0
309660,-0.343471586704254,0
309770,-0.343678742647171,0
309880,-0.34388592839241,0
309990,-0.343264430761337,0
310100,-0.343264430761337,0
310210,-0.342850118875504,0
310320,-0.342642962932587,0
310420,-0.343678742647171,0
310530,-0.342850118875504,0
310640,-0.343471586704254,0
310750,-0.344300240278244,0
310860,-0.34305727481842,0
310970,-0.342642962932587,0
311080,-0.34243580698967,0
311190,-0.343471586704254,0
311300,-0.343678742647171,0
311410,-0.344093084335327,0
311520,-0.344093084335327,0
311630,-0.344300240278244,0
311740,-0.34305727481842,0
311840,-0.342850118875504,0
311950,-0.343264430761337,0
312060,-0.343678742647171,0
312170,-0.34305727481842,0
312280,-0.343471586704254,0
312390,-0.343678742647171,0
312500,-0.34305727481842,0
312610,-0.342228621244431,0
312720,-0.34305727481842,0
312830,-0.34305727481842,0
312940,-0.341814309358597,0
313050,-0.34388592839241,0
313150,-0.34243580698967,0
313260,-0.34388592839241,0
313370,-0.34388592839241,0
313480,-0.343264430761337,0
313590,-0.342228621244431,0
313700,-0.34305727481842,0
313810,-0.342642962932587,0
313920,-0.342021465301514,0
314030,-0.342228621244431,0
314140,-0.34388592839241,0
314250,-0.342850118875504,0
314360,-0.34305727481842,0
314470,-0.343264430761337,0
314570,-0.34305727481842,0
314680,-0.342850118875504,0
314790,-0.342642962932587,0
314900,-0.342850118875504,0
315010,-0.342850118875504,0
315120,-0.34243580698967,0
315230,-0.343678742647171,0
315340,-0.34243580698967,0
315450,-0.344093084335327,0
315560,-0.343678742647171,0
315670,-0.342850118875504,0
315780,-0.344300240278244,0
315880,-0.34305727481842,0
315990,-0.342642962932587,0
316100,-0.343471586704254,0
316210,-0.344300240278244,0
316320,-0.343264430761337,0
316430,-0.344093084335327,0
316540,-0.343471586704254,0
316650,-0.342228621244431,0
316760,-0.343678742647171,0
316870,-0.342850118875504,0
316980,-0.343678742647171,0
317090,-0.342850118875504,0
317200,-0.344093084335327,0
317300,-0.343471586704254,0
317410,-0.342850118875504,0
317520,-0.343678742647171,0
317630,-0.342850118875504,0
317740,-0.343471586704254,0
317850,-0.342228621244431,0
317960,-0.342850118875504,0
318070,-0.344300240278244,0
318180,-0.34388592839241,0
318290,-0.342850118875504,0
318400,-0.343264430761337,0
318510,-0.343678742647171,0
318610,-0.342642962932587,0
318720,-0.34305727481842,0
318830,-0.344714552164078,0
318940,-0.34388592839241,0
319050,-0.34305727481842,0
319160,-0.342228621244431,0
319270,-0.342228621244431,0
319380,-0.344507396221161,0
319490,-0.344300240278244,0
319600,-0.342642962932587,0
319710,-0.343471586704254,0
319820,-0.344093084335327,0
319930,-0.34305727481842,0
320030,-0.34305727481842,0
320140,-0.342642962932587,0
320250,-0.34388592839241,0
320360,-0.344921708106995,0
320470,-0.342642962932587,0
320580,-0.343264430761337,0
320690,-0.342850118875504,0
320800,-0.343678742647171,0
320910,-0.34305727481842,0
321020,-0.34305727481842,0
321130,-0.34305727481842,0
321240,-0.343471586704254,0
321340,-0.34388592839241,0
321450,-0.343264430761337,0
321560,-0.344300240278244,0
321670,-0.344507396221161,0
321780,-0.34388592839241,0
321890,-0.343471586704254,0
322000,-0.34388592839241,0
322110,-0.34388592839241,0
322220,-0.34388592839241,0
322330,-0.34305727481842,0
322440,-0.344507396221161,0
322550,-0.343678742647171,0
322660,-0.342850118875504,0
322760,-0.343471586704254,0
322870,-0.34243580698967,0
322980,-0.342850118875504,0
323090,-0.34243580698967,0
323200,-0.343471586704254,0
323310,-0.342850118875504,0
323420,-0.342642962932587,0
323530,-0.342850118875504,0
323640,-0.34305727481842,0
323750,-0.34305727481842,0
323860,-0.343264430761337,0
323970,-0.34305727481842,0
324070,-0.34388592839241,0
324180,-0.343471586704254,0
324290,-0.34305727481842,0
324400,-0.343678742647171,0
324510,-0.344093084335327,0
324620,-0.344300240278244,0
324730,-0.34243580698967,0
324840,-0.342850118875504,0
324950,-0.34388592839241,0
325060,-0.344300240278244,0
325170,-0.343264430761337,0
325280,-0.344507396221161,0
325390,-0.342228621244431,0
325490,-0.343678742647171,0
325600,-0.344714552164078,0
325710,-0.344507396221161,0
325820,-0.34388592839241,0
325930,-0.342642962932587,0
326040,-0.34305727481842,0
326150,-0.342850118875504,0
326260,-0.342642962932587,0
326370,-0.344300240278244,0
326480,-0.34388592839241,0
326590,-0.343678742647171,0
326700,-0.343678742647171,0
326800,-0.343678742647171,0
326910,-0.343678742647171,0
327020,-0.342642962932587,0
327130,-0.342642962932587,0
327240,-0.34388592839241,0
327350,-0.34388592839241,0
327460,-0.343678742647171,0
327570,-0.34388592839241,0
327680,-0.343678742647171,0
327790,-0.341814309358597,0
327900,-0.34243580698967,0
328010,-0.343264430761337,0
328120,-0.342850118875504,0
328220,-0.341814309358597,0
328330,-0.342021465301514,0
328440,-0.34388592839241,0
328550,-0.344093084335327,0
328660,-0.343471586704254,0
328770,-0.34305727481842,0
328880,-0.343264430761337,0
328990,-0.344093084335327,0
329100,-0.34305727481842,0
329210,-0.342850118875504,0
329320,-0.34243580698967,0
329430,-0.34305727481842,0
329530,-0.343264430761337,0
329640,-0.342642962932587,0
329750,-0.34388592839241,0
329860,-0.343264430761337,0
329970,-0.343264430761337,0
330080,-0.34243580698967,0
330190,-0.34305727481842,0
330300,-0.344093084335327,0
330410,-0.344300240278244,0
330520,-0.343471586704254,0
330630,-0.343471586704254,0
330740,-0.342642962932587,0
330850,-0.342850118875504,0
330950,-0.343678742647171,0
331060,-0.34243580698967,0
331170,-0.342021465301514,0
331280,-0.344093084335327,0
331390,-0.342642962932587,0
331500,-0.342850118875504,0
331610,-0.343471586704254,0
331720,-0.342642962932587,0
331830,-0.343678742647171,0
331940,-0.34305727481842,0
332050,-0.34305727481842,0
332160,-0.34243580698967,0
332260,-0.343678742647171,0
332370,-0.342850118875504,0
332480,-0.343471586704254,0
332590,-0.344507396221161,0
332700,-0.34243580698967,0
332810,-0.34305727481842,0
332920,-0.34305727481842,0
333030,-0.34243580698967,0
333140,-0.343471586704254,0
333250,-0.343678742647171,0
333360,-0.343264430761337,0
333470,-0.34243580698967,0
333580,-0.343471586704254,0
333680,-0.342642962932587,0
333790,-0.342642962932587,0
333900,-0.34305727481842,0
334010,-0.343264430761337,0
334120,-0.342642962932587,0
334230,-0.342642962932587,0
334340,-0.343264430761337,0
334450,-0.34305727481842,0
334560,-0.343471586704254,0
334670,-0.342228621244431,0
334780,-0.343471586704254,0
334890,-0.343471586704254,0
334990,-0.344507396221161,0
335100,-0.34243580698967,0
335210,-0.343678742647171,0
335320,-0.342642962932587,0
335430,-0.34305727481842,0
335540,-0.343471586704254,0
335650,-0.344093084335327,0
335760,-0.34243580698967,0
335870,-0.342021465301514,0
335980,-0.343264430761337,0
336090,-0.343264430761337,0
336200,-0.342228621244431,0
336310,-0.343678742647171,0
336410,-0.342021465301514,0
336520,-0.343678742647171,0
336630,-0.34388592839241,0
336740,-0.343471586704254,0
336850,-0.342228621244431,0
336960,-0.344300240278244,0
337070,-0.34305727481842,0
337180,-0.343678742647171,0
337290,-0.343264430761337,0
337400,-0.34243580698967,0
337510,-0.343678742647171,0
337620,-0.343678742647171,0
337720,-0.343264430761337,0
337830,-0.343471586704254,0
337940,-0.343471586704254,0
338050,-0.343471586704254,0
338160,-0.344093084335327,0
338270,-0.343471586704254,0
338380,-0.343471586704254,0
338490,-0.343471586704254,0
338600,-0.344093084335327,0
338710,-0.34388592839241,0
338820,-0.343678742647171,0
338930,-0.342850118875504,0
339040,-0.343264430761337,0
339140,-0.34243580698967,0
339250,-0.342850118875504,0
339360,-0.343264430761337,0
339470,-0.342021465301514,0
339580,-0.34305727481842,0
339690,-0.342850118875504,0
339800,-0.342228621244431,0
339910,-0.34305727481842,0
340020,-0.343471586704254,0
340130,-0.343678742647171,0
340240,-0.342850118875504,0
340350,-0.343264430761337,0
340450,-0.344093084335327,0
340560,-0.342642962932587,0
340670,-0.344093084335327,0
340780,-0.34388592839241,0
340890,-0.343678742647171,0
341000,-0.34305727481842,0
341110,-0.34243580698967,0
341220,-0.343471586704254,0
341330,-0.34388592839241,0
341440,-0.34305727481842,0
341550,-0.343678742647171,0
341660,-0.34305727481842,0
341770,-0.342850118875504,0
341870,-0.342642962932587,0
341980,-0.343678742647171,0
342090,-0.343264430761337,0
342200,-0.343678742647171,0
342310,-0.343678742647171,0
342420,-0.343678742647171,0
342530,-0.344093084335327,0
342640,-0.342850118875504,0
342750,-0.342642962932587,0
342860,-0.343678742647171,0
342970,-0.34388592839241,0
343080,-0.343264430761337,0
343190,-0.344093084335327,0
343290,-0.342021465301514,0
343400,-0.34305727481842,0
343510,-0.343471586704254,0
