time,raw,transformed
43130,-0.333113580942154,0
43240,-0.332492113113403,0
43350,-0.334563702344894,0
43460,-0.333113580942154,0
43570,-0.332906424999237,0
43680,-0.334356546401978,0
43790,-0.334356546401978,0
43900,-0.333320736885071,0
44000,-0.334149390459061,0
44110,-0.334978014230728,0
44220,-0.334149390459061,0
44330,-0.334770858287811,0
44440,-0.334563702344894,0
44550,-0.334978014230728,0
44660,-0.334978014230728,0
44770,-0.335806667804718,0
44880,-0.334978014230728,0
44990,-0.335806667804718,0
45100,-0.336635321378708,0
45210,-0.336635321378708,0
45310,-0.334356546401978,0
45420,-0.334563702344894,0
45530,-0.335599511861801,0
45640,-0.336842477321625,0
45750,-0.335599511861801,0
45860,-0.335392355918884,0
45970,-0.337049633264542,0
46080,-0.336635321378708,0
46190,-0.336428135633469,0
46300,-0.335185199975967,0
46410,-0.337049633264542,100
46520,-0.337463945150375,100
46630,-0.336635321378708,100
46730,-0.334770858287811,86.8775326209713
46840,-0.337463945150375,84.3953174032308
46950,-0.337256789207459,82.2646735154341
47060,-0.336013823747635,81.4966031155933
47170,-0.337049633264542,79.7568050042662
47280,-0.336635321378708,78.5006958957052
47390,-0.335806667804718,78.0766336524088
47500,-0.336428135633469,77.1104180471349
47610,-0.336842477321625,75.8238941014344
47720,-0.336635321378708,74.776095396062
47830,-0.337878257036209,76.3633268435843
47940,-0.337463945150375,74.9626546377197
48040,-0.337049633264542,73.9127307360157
48150,-0.337049633264542,72.9074844471514
48260,-0.337256789207459,71.8052371955327
48370,-0.337463945150375,70.6119278156172
48480,-0.337463945150375,69.4663508108994
48590,-0.337256789207459,68.49641484146
48700,-0.337878257036209,67.1791760945093
48810,-0.337256789207459,66.2889957223398
48920,-0.337671101093292,65.1848761495155
49030,-0.337256789207459,64.3633259716967
49140,-0.338292598724365,67.3318554382915
49250,-0.337256789207459,66.6665924352214
49360,-0.337256789207459,66.0242695357073
49460,-0.337256789207459,65.4037202938019
49570,-0.338292598724365,64.3136582889052
49680,-0.337463945150375,63.6450681638146
49790,-0.337256789207459,63.0929197138069
49900,-0.339121222496033,69.0096366367482
50010,-0.338085442781448,68.3033772281365
50120,-0.337878257036209,67.6921179851844
50230,-0.337463945150375,67.2436789282935
50340,-0.338085442781448,66.5954006530303
50450,-0.338706910610199,65.7561096698118
50560,-0.337049633264542,65.4932494430716
50670,-0.338292598724365,64.8297348451488
50770,-0.338706910610199,64.0507753937275
50880,-0.337256789207459,63.756416667808
50990,-0.337463945150375,63.4048923330506
51100,-0.338292598724365,62.8054644310969
51210,-0.338292598724365,62.2220212731943
51320,-0.338499754667282,61.5912765286969
51430,-0.337463945150375,61.2861319014471
51540,-0.337049633264542,61.1109091081549
51650,-0.338292598724365,60.5784574433495
51760,-0.338499754667282,59.9997944839489
51870,-0.339121222496033,59.259056280444
51980,-0.338085442781448,58.8267389414822
52090,-0.337878257036209,58.4622183088888
52190,-0.338085442781448,58.0496804062301
52300,-0.338914066553116,57.4227642472998
52410,-0.33932837843895,58.6678452349728
52520,-0.338914066553116,58.097993344345
52630,-0.338292598724365,57.6960482708397
52740,-0.338914066553116,57.1499211076883
52850,-0.338499754667282,56.7169382231667
52960,-0.338499754667282,56.2934714459968
53070,-0.338292598724365,55.9286166137136
53180,-0.338292598724365,55.571608121909
53290,-0.337878257036209,55.3189124136089
53400,-0.33932837843895,54.7366080724126
53500,-0.338706910610199,54.3084777396331
53610,-0.338292598724365,53.9828937101098
53720,-0.33932837843895,53.4320478559257
53830,-0.337463945150375,53.3055518401279
53940,-0.339742720127106,56.624973026111
54050,-0.338085442781448,56.3943607538393
54160,-0.338706910610199,56.0457242095537
54270,-0.339121222496033,55.6229530979064
54380,-0.337671101093292,55.4887599572842
54490,-0.339535564184189,54.9999771649619
54600,-0.338085442781448,54.7955729796951
54710,-0.338706910610199,54.4781698045261
54820,-0.339742720127106,53.9737423063366
54920,-0.338292598724365,53.7461535398876
55030,-0.33932837843895,53.3333133526748
55140,-0.338706910610199,53.0405216399171
55250,-0.338706910610199,52.7529583506028
55360,-0.339742720127106,52.2861180112167
55470,-0.339742720127106,51.8274678532232
55580,-0.338706910610199,51.5579545087317
55690,-0.339121222496033,51.2212505880511
55800,-0.340157032012939,54.503521095122
55910,-0.340157032012939,54.0416268485529
56020,-0.339535564184189,53.6844552461606
56130,-0.339535564184189,53.3332365038086
56230,-0.338292598724365,53.1785417542172
56340,-0.338706910610199,52.9633326772208
56450,-0.339742720127106,52.5952741793784
56560,-0.339949876070023,52.2021354256843
56670,-0.339535564184189,51.8768239915892
56780,-0.338706910610199,51.678778042138
56890,-0.340364187955856,51.2415745243156
57000,-0.339121222496033,50.9914911055165
57110,-0.339121222496033,50.1200988698611
57220,-0.338499754667282,49.2487066342057
57330,-0.337671101093292,48.7979868104355
57440,-0.339535564184189,47.8664954282632
57550,-0.339535564184189,46.9049566342057
57650,-0.339121222496033,46.2138531926078
57760,-0.338292598724365,45.6429393985503
57870,-0.339121222496033,44.8015945747801
57980,-0.338914066553116,44.1104911331821
58090,-0.338292598724365,43.6297195747801
58200,-0.339949876070023,42.7883747510098
58310,-0.34077849984169,41.9169825153544
58420,-0.340157032012939,41.1056851034693
58530,-0.338292598724365,40.6249135450672
58640,-0.33932837843895,39.9939049272395
58750,-0.339121222496033,39.5131376915841
58860,-0.340571343898773,38.701840279699
58960,-0.339535564184189,38.1609738975267
59070,-0.34077849984169,37.5600170143308
59180,-0.338499754667282,37.2895859846179
59290,-0.33932837843895,36.5684351311348
59400,-0.338706910610199,35.9674739251923
59510,-0.338914066553116,35.4867066895369
59620,-0.33932837843895,35.1261334241687
59730,-0.338499754667282,34.7054610122835
59840,-0.339535564184189,34.1044998063409
59950,-0.33932837843895,33.7739739528579
60060,-0.338914066553116,33.4434480993748
60170,-0.338085442781448,33.2030601588004
60280,-0.339121222496033,32.6321506874896
60380,-0.340157032012939,32.1814308637194
60490,-0.339742720127106,31.8509006874896
60600,-0.338706910610199,31.5504222458917
60710,-0.339949876070023,30.7992196577768
60820,-0.339535564184189,30.4987368934322
60930,-0.340364187955856,30.0480170696619
61040,-0.340985685586929,29.3268618934322
61150,-0.338499754667282,29.1165256874896
61260,-0.340157032012939,28.6057110399491
61370,-0.338914066553116,28.1549912161788
61480,-0.33932837843895,27.7343188042937
61590,-0.340157032012939,27.2535515686383
61690,-0.340157032012939,26.7427369210978
61800,-0.339949876070023,26.4422541567532
61910,-0.339535564184189,26.1417713924086
62020,-0.339742720127106,25.7511463924086
62130,-0.339949876070023,25.3304739805234
62240,-0.339535564184189,24.9999438042937
62350,-0.338292598724365,24.8797498340065
62460,-0.339949876070023,24.5191722458917
62570,-0.339535564184189,24.1886420696619
62680,-0.337671101093292,24.2186894815471
62790,-0.339535564184189,23.8881593053173
62900,-0.341399997472763,23.347292923145
63010,-0.33932837843895,23.0468144815471
63110,-0.34077849984169,22.6862412161788
63220,-0.339121222496033,22.415810186466
63330,-0.338914066553116,22.1754265686383
63440,-0.339742720127106,21.8148489805234
63550,-0.340157032012939,21.5444179508106
63660,-0.340157032012939,21.1537929508106
63770,-0.339949876070023,20.7631679508106
63880,-0.338499754667282,20.853310186466
63990,-0.339949876070023,20.5828791567532
64100,-0.338499754667282,20.4927325983511
64210,-0.339742720127106,20.1622024221214
64320,-0.34160715341568,19.6513877745809
64420,-0.340157032012939,19.4410515686383
64530,-0.340157032012939,18.990331744868
64640,-0.340157032012939,18.7199007151552
64750,-0.340985685586929,18.3893705389255
64860,-0.340157032012939,17.9686981270403
64970,-0.339949876070023,17.6081205389255
65080,-0.34160715341568,17.1273533032701
65190,-0.340571343898773,16.796827449787
65300,-0.339949876070023,16.5864912438444
65410,-0.340157032012939,16.1958662438444
65520,-0.339121222496033,15.8953878022464
65630,-0.340157032012939,15.6249567725336
65740,-0.339742720127106,15.4446679784762
65840,-0.34077849984169,15.2042843606485
65950,-0.339949876070023,14.9338533309357
66060,-0.339535564184189,14.6934653903613
66170,-0.33932837843895,14.5131809190505
66280,-0.340157032012939,14.3328921249931
66390,-0.339535564184189,14.3028403903613
66500,-0.33932837843895,14.242745566591
66610,-0.338914066553116,14.1526033309357
66720,-0.340571343898773,13.912219713108
66830,-0.339949876070023,13.7018835071654
66940,-0.340985685586929,13.3413059190505
67050,-0.340364187955856,13.0408274774526
67150,-0.33932837843895,12.8905904180269
67260,-0.340364187955856,12.530012829912
67370,-0.339535564184189,12.4999610952803
67480,-0.338706910610199,12.4999610952803
67590,-0.340571343898773,12.1694352417972
67700,-0.34077849984169,11.9590990358546
67810,-0.340571343898773,11.5083792120843
67920,-0.340571343898773,11.3881895645438
68030,-0.340157032012939,11.0877111229458
68140,-0.33932837843895,10.9975688872904
68250,-0.340571343898773,10.7872326813479
68360,-0.34077849984169,10.3365128575776
68470,-0.339121222496033,10.3966120040945
68570,-0.33932837843895,10.2163275327837
68680,-0.341814309358597,9.76560770901344
68790,-0.340571343898773,9.64541806147292
68900,-0.340157032012939,9.37498703176009
69010,-0.339121222496033,9.40503444364522
69120,-0.339949876070023,9.22474564958778
69230,-0.340157032012939,9.01440944364522
69340,-0.339535564184189,9.04445685553035
69450,-0.340364187955856,8.95431461987495
69560,-0.340157032012939,8.74397841393239
69670,-0.340571343898773,8.53364220798982
69780,-0.340364187955856,8.50359479610469
69880,-0.34077849984169,8.41345256044929
69990,-0.340571343898773,8.26321550102363
70100,-0.340985685586929,8.05287929508106
70210,-0.340364187955856,7.7524008534831
70320,-0.339742720127106,7.60215947131079
70430,-0.340364187955856,7.5120172356554
70540,-0.34077849984169,7.39182758811487
70650,-0.34077849984169,7.21154311680407
70760,-0.338499754667282,7.24159052868921
70870,-0.340157032012939,7.27163794057434
70980,-0.340364187955856,7.0913491465169
71090,-0.339949876070023,6.97115517622973
71200,-0.340985685586929,6.61057758811487
71300,-0.339742720127106,6.31009482377027
71410,-0.340364187955856,6.18990517622973
71520,-0.34077849984169,6.00962070491894
71630,-0.341192841529846,5.70913794057434
71740,-0.340571343898773,5.37861208709124
71850,-0.339949876070023,5.25841811680407
71960,-0.338914066553116,5.25841811680407
72070,-0.340364187955856,4.95793967520611
72180,-0.339949876070023,4.95793967520611
72290,-0.341192841529846,4.8978405286892
72400,-0.340157032012939,4.8978405286892
72510,-0.340364187955856,4.59736208709124
72610,-0.340364187955856,4.44712070491894
72720,-0.340985685586929,4.17668535245947
72830,-0.33932837843895,4.3569741465169
72940,-0.341192841529846,4.1165905286892
73050,-0.339949876070023,4.23678017622973
73160,-0.340571343898773,3.93630173463177
73270,-0.340985685586929,3.69591379405743
73380,-0.340364187955856,3.45553017622973
73490,-0.339535564184189,3.3653836178277
73600,-0.339742720127106,3.3052844713108
73710,-0.33932837843895,3.18509482377027
73820,-0.339742720127106,3.15504741188513
73930,-0.341192841529846,2.88461205942566
74030,-0.340157032012939,2.70432326536823
74140,-0.339535564184189,2.49398705942566
74250,-0.340364187955856,2.31369826536823
74360,-0.341814309358597,2.07331464754053
74470,-0.341399997472763,1.83293102971283
74580,-0.33932837843895,1.74278879405743
74690,-0.34077849984169,1.6225991465169
74800,-0.34077849984169,1.44231467520611
74910,-0.340364187955856,1.44231467520611
75020,-0.340985685586929,1.44231467520611
75130,-0.340157032012939,1.20193105737841
75240,-0.341814309358597,0.961547439550711
75340,-0.340571343898773,0.721163821723012
75450,-0.339535564184189,0.691112087091241
75560,-0.34077849984169,0.600969851435843
75670,-0.33932837843895,0.721163821723012
75780,-0.339535564184189,0.781258645493277
75890,-0.34077849984169,0.600974174182482
76000,-0.340364187955856,0.510831938527085
76110,-0.340571343898773,0.420689702871687
76220,-0.34160715341568,0.120211261273723
76330,-0.33932837843895,0
76440,-0.339949876070023,0
76550,-0.341814309358597,0
76660,-0.340364187955856,0
76760,-0.339949876070023,0
76870,-0.340157032012939,0
76980,-0.340157032012939,0
77090,-0.341192841529846,0
77200,-0.340364187955856,0
77310,-0.340571343898773,0
77420,-0.340571343898773,0
77530,-0.339949876070023,0
77640,-0.340571343898773,0
77750,-0.340985685586929,0
77860,-0.339742720127106,0
77970,-0.341814309358597,0
78070,-0.340364187955856,0
78180,-0.34077849984169,0
78290,-0.340364187955856,0
78400,-0.340985685586929,0
78510,-0.341814309358597,0
78620,-0.340157032012939,0
78730,-0.341399997472763,0
78840,-0.340571343898773,0
78950,-0.340985685586929,0
79060,-0.340571343898773,0
79170,-0.34077849984169,0
79280,-0.341192841529846,0
79390,-0.341192841529846,0
79490,-0.340364187955856,0
79600,-0.340985685586929,0
79710,-0.340364187955856,0
79820,-0.340571343898773,0
79930,-0.340157032012939,0
80040,-0.34160715341568,0
80150,-0.340364187955856,0
80260,-0.340985685586929,0
80370,-0.34160715341568,0
80480,-0.34077849984169,0
80590,-0.340364187955856,0
80700,-0.340571343898773,0
80800,-0.34077849984169,0
80910,-0.341399997472763,0
81020,-0.341814309358597,0
81130,-0.340985685586929,0
81240,-0.341399997472763,0
81350,-0.340985685586929,0
81460,-0.340571343898773,0
81570,-0.340364187955856,0
81680,-0.339742720127106,0
81790,-0.34077849984169,0
81900,-0.339949876070023,0
82010,-0.34077849984169,0
82120,-0.341399997472763,0
82220,-0.339949876070023,0
82330,-0.340157032012939,0
82440,-0.339742720127106,0
82550,-0.339535564184189,0
82660,-0.339949876070023,0
82770,-0.340571343898773,0
82880,-0.339742720127106,0
82990,-0.341814309358597,0
83100,-0.341814309358597,0
83210,-0.340157032012939,0
83320,-0.341192841529846,0
83430,-0.340571343898773,0
83530,-0.339742720127106,0
83640,-0.34160715341568,0
83750,-0.339949876070023,0
83860,-0.341192841529846,0
83970,-0.34077849984169,0
84080,-0.340157032012939,0
84190,-0.340985685586929,0
84300,-0.340571343898773,0
84410,-0.340985685586929,0
84520,-0.340571343898773,0
84630,-0.340985685586929,0
84740,-0.341192841529846,0
84850,-0.339949876070023,0
84950,-0.340157032012939,0
85060,-0.339535564184189,0
85170,-0.340571343898773,0
85280,-0.341814309358597,0
85390,-0.341192841529846,0
85500,-0.34077849984169,0
85610,-0.340364187955856,0
85720,-0.340985685586929,0
85830,-0.339742720127106,0
85940,-0.341399997472763,0
86050,-0.341399997472763,0
86160,-0.341192841529846,0
86260,-0.339949876070023,0
86370,-0.341192841529846,0
86480,-0.340364187955856,0
86590,-0.33932837843895,0
86700,-0.340571343898773,0
86810,-0.341192841529846,0
86920,-0.341399997472763,0
87030,-0.340985685586929,0
87140,-0.339742720127106,0
87250,-0.339742720127106,0
87360,-0.340157032012939,0
87470,-0.340571343898773,0
87580,-0.339742720127106,0
87680,-0.339949876070023,0
87790,-0.34077849984169,0
87900,-0.341399997472763,0
88010,-0.341192841529846,0
88120,-0.34077849984169,0
88230,-0.340985685586929,0
88340,-0.340364187955856,0
88450,-0.341814309358597,0
88560,-0.34077849984169,0
88670,-0.340157032012939,0
88780,-0.341399997472763,0
88890,-0.34077849984169,0
88990,-0.339949876070023,0
89100,-0.340985685586929,0
89210,-0.340571343898773,0
89320,-0.340157032012939,0
89430,-0.34160715341568,0
89540,-0.340571343898773,0
89650,-0.340571343898773,0
89760,-0.340985685586929,0
89870,-0.340157032012939,0
89980,-0.340364187955856,0
90090,-0.340985685586929,0
90200,-0.340571343898773,0
90310,-0.339535564184189,0
90410,-0.339535564184189,0
90520,-0.341192841529846,0
90630,-0.340157032012939,0
90740,-0.340985685586929,0
90850,-0.340364187955856,0
90960,-0.34077849984169,0
91070,-0.34160715341568,0
91180,-0.340571343898773,0
91290,-0.340364187955856,0
91400,-0.340571343898773,0
91510,-0.342021465301514,0
91620,-0.34243580698967,0
91720,-0.34077849984169,0
91830,-0.340157032012939,0
91940,-0.339742720127106,0
92050,-0.34077849984169,0
92160,-0.340985685586929,0
92270,-0.341399997472763,0
92380,-0.339949876070023,0
92490,-0.34160715341568,0
92600,-0.34077849984169,0
92710,-0.339121222496033,0
92820,-0.34160715341568,0
92930,-0.339121222496033,0
93040,-0.34077849984169,0
93140,-0.341192841529846,0
93250,-0.340364187955856,0
93360,-0.341814309358597,0
93470,-0.34077849984169,0
93580,-0.340157032012939,0
93690,-0.341192841529846,0
93800,-0.340985685586929,0
93910,-0.34077849984169,0
94020,-0.34160715341568,0
94130,-0.341399997472763,0
94240,-0.340985685586929,0
94350,-0.342228621244431,0
94450,-0.340571343898773,0
94560,-0.341192841529846,0
94670,-0.340364187955856,0
94780,-0.341192841529846,0
94890,-0.34077849984169,0
95000,-0.341814309358597,0
95110,-0.34077849984169,0
95220,-0.34160715341568,0
95330,-0.342021465301514,0
95440,-0.340985685586929,0
95550,-0.340364187955856,0
95660,-0.341192841529846,0
95770,-0.340364187955856,0
95870,-0.340157032012939,0
95980,-0.342228621244431,0
96090,-0.341399997472763,0
96200,-0.34160715341568,0
96310,-0.339742720127106,0
96420,-0.34077849984169,0
96530,-0.340364187955856,0
96640,-0.341814309358597,0
96750,-0.342021465301514,0
96860,-0.340571343898773,0
96970,-0.341192841529846,0
97080,-0.339742720127106,0
97180,-0.341399997472763,0
97290,-0.339535564184189,0
97400,-0.341399997472763,0
97510,-0.341814309358597,0
97620,-0.342021465301514,0
97730,-0.341814309358597,0
97840,-0.341814309358597,0
97950,-0.34077849984169,0
98060,-0.341399997472763,0
98170,-0.339949876070023,0
98280,-0.341192841529846,0
98390,-0.34077849984169,0
98500,-0.343264430761337,0
98600,-0.34160715341568,0
98710,-0.341192841529846,0
98820,-0.341399997472763,0
98930,-0.34077849984169,0
99040,-0.341814309358597,0
99150,-0.340985685586929,0
99260,-0.340157032012939,0
99370,-0.340985685586929,0
99480,-0.34160715341568,0
99590,-0.341814309358597,0
99700,-0.341814309358597,0
99810,-0.341192841529846,0
99910,-0.34160715341568,0
100020,-0.340985685586929,0
100130,-0.341192841529846,0
100240,-0.341399997472763,0
100350,-0.340157032012939,0
100460,-0.34077849984169,0
100570,-0.342228621244431,0
100680,-0.341814309358597,0
100790,-0.342228621244431,0
100900,-0.341192841529846,0
101010,-0.340157032012939,0
101120,-0.340157032012939,0
101230,-0.339949876070023,0
101330,-0.339535564184189,0
101440,-0.341399997472763,0
101550,-0.340571343898773,0
101660,-0.340571343898773,0
101770,-0.340985685586929,0
101880,-0.341192841529846,0
101990,-0.341192841529846,0
102100,-0.341399997472763,0
102210,-0.341399997472763,0
102320,-0.34243580698967,0
102430,-0.342021465301514,0
102540,-0.340571343898773,0
102640,-0.339535564184189,0
102750,-0.341192841529846,0
102860,-0.341814309358597,0
102970,-0.340985685586929,0
103080,-0.34160715341568,0
103190,-0.340571343898773,0
103300,-0.341192841529846,0
103410,-0.340364187955856,0
103520,-0.339535564184189,0
103630,-0.339742720127106,0
103740,-0.340985685586929,0
103850,-0.341814309358597,0
103960,-0.341399997472763,0
104060,-0.341399997472763,0
104170,-0.340157032012939,0
104280,-0.341192841529846,0
104390,-0.342021465301514,0
104500,-0.341192841529846,0
104610,-0.34160715341568,0
104720,-0.340985685586929,0
104830,-0.340157032012939,0
104940,-0.342021465301514,0
105050,-0.340157032012939,0
105160,-0.342021465301514,0
105270,-0.341192841529846,0
105370,-0.34077849984169,0
105480,-0.340985685586929,0
105590,-0.341399997472763,0
105700,-0.341192841529846,0
105810,-0.33932837843895,0
105920,-0.341192841529846,0
106030,-0.341192841529846,0
106140,-0.34160715341568,0
106250,-0.34077849984169,0
106360,-0.339949876070023,0
106470,-0.340985685586929,0
106580,-0.340157032012939,0
106690,-0.342021465301514,0
106790,-0.341814309358597,0
106900,-0.340985685586929,0
107010,-0.34077849984169,0
107120,-0.340571343898773,0
107230,-0.34077849984169,0
107340,-0.340985685586929,0
107450,-0.341192841529846,0
107560,-0.341399997472763,0
107670,-0.340571343898773,0
107780,-0.34077849984169,0
107890,-0.341399997472763,0
108000,-0.341399997472763,0
108100,-0.34243580698967,0
108210,-0.341814309358597,0
108320,-0.341814309358597,0
108430,-0.340571343898773,0
108540,-0.34077849984169,0
108650,-0.34077849984169,0
108760,-0.34160715341568,0
108870,-0.340571343898773,0
108980,-0.341192841529846,0
109090,-0.339949876070023,0
109200,-0.341399997472763,0
109310,-0.340364187955856,0
109420,-0.341399997472763,0
109520,-0.341399997472763,0
109630,-0.34077849984169,0
109740,-0.34077849984169,0
109850,-0.340571343898773,0
109960,-0.340985685586929,0
110070,-0.340571343898773,0
110180,-0.341814309358597,0
110290,-0.340157032012939,0
110400,-0.34160715341568,0
110510,-0.340364187955856,0
110620,-0.341814309358597,0
110730,-0.342642962932587,0
110830,-0.341192841529846,0
110940,-0.340571343898773,0
111050,-0.340157032012939,0
111160,-0.34160715341568,0
111270,-0.339742720127106,0
111380,-0.342021465301514,0
111490,-0.34077849984169,0
111600,-0.34077849984169,0
111710,-0.342021465301514,0
111820,-0.340571343898773,0
111930,-0.342021465301514,0
112040,-0.340157032012939,0
112150,-0.341192841529846,0
112250,-0.339742720127106,0
112360,-0.340157032012939,0
112470,-0.341192841529846,0
112580,-0.34160715341568,0
112690,-0.341399997472763,0
112800,-0.341192841529846,0
112910,-0.34160715341568,0
113020,-0.340571343898773,0
113130,-0.339949876070023,0
113240,-0.341814309358597,0
113350,-0.341192841529846,0
113460,-0.34160715341568,0
113560,-0.339949876070023,0
113670,-0.341192841529846,0
113780,-0.342228621244431,0
113890,-0.342228621244431,0
114000,-0.340364187955856,0
114110,-0.341814309358597,0
114220,-0.340157032012939,0
114330,-0.343264430761337,0
114440,-0.34160715341568,0
114550,-0.34077849984169,0
114660,-0.34077849984169,0
114770,-0.340157032012939,0
114880,-0.340985685586929,0
114980,-0.341192841529846,0
115090,-0.340985685586929,0
115200,-0.342228621244431,0
115310,-0.340571343898773,0
115420,-0.340571343898773,0
115530,-0.340157032012939,0
115640,-0.34243580698967,0
115750,-0.341192841529846,0
115860,-0.341192841529846,0
115970,-0.34077849984169,0
116080,-0.342021465301514,0
116190,-0.341192841529846,0
116290,-0.340985685586929,0
116400,-0.340985685586929,0
116510,-0.342021465301514,0
116620,-0.341192841529846,0
116730,-0.341192841529846,0
116840,-0.342021465301514,0
116950,-0.340364187955856,0
117060,-0.340571343898773,0
117170,-0.34077849984169,0
117280,-0.34077849984169,0
117390,-0.342021465301514,0
117500,-0.34243580698967,0
117610,-0.341399997472763,0
117710,-0.34160715341568,0
117820,-0.342021465301514,0
117930,-0.341192841529846,0
118040,-0.341192841529846,0
118150,-0.341814309358597,0
118260,-0.34160715341568,0
118370,-0.340985685586929,0
118480,-0.340985685586929,0
118590,-0.340364187955856,0
118700,-0.341192841529846,0
118810,-0.341399997472763,0
118920,-0.340985685586929,0
119020,-0.342021465301514,0
119130,-0.342228621244431,0
119240,-0.34077849984169,0
119350,-0.341192841529846,0
119460,-0.34160715341568,0
119570,-0.339949876070023,0
119680,-0.341814309358597,0
119790,-0.341192841529846,0
119900,-0.34160715341568,0
120010,-0.341192841529846,0
120120,-0.341814309358597,0
120230,-0.340364187955856,0
120340,-0.340571343898773,0
120440,-0.340571343898773,0
120550,-0.340571343898773,0
120660,-0.34160715341568,0
120770,-0.341399997472763,0
120880,-0.341399997472763,0
120990,-0.341192841529846,0
121100,-0.340985685586929,0
121210,-0.341399997472763,0
121320,-0.340571343898773,0
121430,-0.341814309358597,0
121540,-0.34160715341568,0
121650,-0.342228621244431,0
121760,-0.341399997472763,0
121860,-0.341814309358597,0
121970,-0.340985685586929,0
122080,-0.34160715341568,0
122190,-0.34160715341568,0
122300,-0.341399997472763,0
122410,-0.34160715341568,0
122520,-0.340985685586929,0
122630,-0.34160715341568,0
122740,-0.342228621244431,0
122850,-0.340985685586929,0
122960,-0.342228621244431,0
123070,-0.340571343898773,0
123170,-0.341814309358597,0
123280,-0.341399997472763,0
123390,-0.340985685586929,0
123500,-0.340571343898773,0
123610,-0.34243580698967,0
123720,-0.341399997472763,0
123830,-0.341814309358597,0
123940,-0.340985685586929,0
124050,-0.341399997472763,0
124160,-0.341399997472763,0
124270,-0.34243580698967,0
124380,-0.341814309358597,0
124490,-0.341192841529846,0
124590,-0.341192841529846,0
124700,-0.340571343898773,0
124810,-0.341192841529846,0
124920,-0.342021465301514,0
125030,-0.341814309358597,0
125140,-0.340985685586929,0
125250,-0.340364187955856,0
125360,-0.343264430761337,0
125470,-0.34077849984169,0
125580,-0.34160715341568,0
125690,-0.339742720127106,0
125800,-0.341192841529846,0
125900,-0.341192841529846,0
126010,-0.34160715341568,0
126120,-0.341192841529846,0
126230,-0.340985685586929,0
126340,-0.341399997472763,0
126450,-0.34160715341568,0
126560,-0.34305727481842,0
126670,-0.342021465301514,0
126780,-0.340985685586929,0
126890,-0.341192841529846,0
127000,-0.34077849984169,0
127110,-0.34160715341568,0
127220,-0.342021465301514,0
127320,-0.342228621244431,0
127430,-0.340985685586929,0
127540,-0.341192841529846,0
127650,-0.34077849984169,0
127760,-0.341192841529846,0
127870,-0.340985685586929,0
127980,-0.342021465301514,0
128090,-0.341814309358597,0
128200,-0.339742720127106,0
128310,-0.340985685586929,0
128420,-0.340157032012939,0
128530,-0.341814309358597,0
128630,-0.341192841529846,0
128740,-0.341814309358597,0
128850,-0.340985685586929,0
128960,-0.341192841529846,0
129070,-0.342021465301514,0
129180,-0.34243580698967,0
129290,-0.340571343898773,0
129400,-0.339949876070023,0
129510,-0.34160715341568,0
129620,-0.340571343898773,0
129730,-0.342021465301514,0
129840,-0.340571343898773,0
129950,-0.341399997472763,0
130050,-0.341399997472763,0
130160,-0.34160715341568,0
130270,-0.341192841529846,0
130380,-0.34160715341568,0
130490,-0.340985685586929,0
130600,-0.341192841529846,0
130710,-0.341192841529846,0
130820,-0.342021465301514,0
130930,-0.342642962932587,0
131040,-0.34160715341568,0
131150,-0.340985685586929,0
131260,-0.342228621244431,0
131360,-0.341814309358597,0
131470,-0.339742720127106,0
131580,-0.341192841529846,0
131690,-0.341399997472763,0
131800,-0.34077849984169,0
131910,-0.342850118875504,0
132020,-0.341192841529846,0
132130,-0.340364187955856,0
132240,-0.34077849984169,0
132350,-0.339535564184189,0
132460,-0.341814309358597,0
132570,-0.34160715341568,0
132680,-0.340985685586929,0
132780,-0.340985685586929,0
132890,-0.341814309358597,0
133000,-0.34160715341568,0
133110,-0.342850118875504,0
133220,-0.342021465301514,0
133330,-0.339949876070023,0
133440,-0.34160715341568,0
133550,-0.340364187955856,0
133660,-0.34243580698967,0
133770,-0.341399997472763,0
133880,-0.341192841529846,0
133990,-0.34077849984169,0
134090,-0.342021465301514,0
134200,-0.341814309358597,0
134310,-0.34160715341568,0
134420,-0.340571343898773,0
134530,-0.34243580698967,0
134640,-0.342228621244431,0
134750,-0.341814309358597,0
134860,-0.340985685586929,0
134970,-0.341192841529846,0
135080,-0.340985685586929,0
135190,-0.341399997472763,0
135300,-0.341814309358597,0
135410,-0.341399997472763,0
135510,-0.34160715341568,0
135620,-0.341814309358597,0
135730,-0.341814309358597,0
135840,-0.342228621244431,0
135950,-0.340364187955856,0
136060,-0.341192841529846,0
136170,-0.342021465301514,0
136280,-0.341192841529846,0
136390,-0.341814309358597,0
136500,-0.341399997472763,0
136610,-0.34243580698967,0
136720,-0.34160715341568,0
136820,-0.342021465301514,0
136930,-0.340364187955856,0
137040,-0.340985685586929,0
137150,-0.34077849984169,0
137260,-0.342021465301514,0
137370,-0.34160715341568,0
137480,-0.342021465301514,0
137590,-0.34160715341568,0
137700,-0.341399997472763,0
137810,-0.342021465301514,0
137920,-0.341399997472763,0
138030,-0.34160715341568,0
138140,-0.340571343898773,0
138240,-0.341399997472763,0
138350,-0.341399997472763,0
138460,-0.341399997472763,0
138570,-0.34077849984169,0
138680,-0.341399997472763,0
138790,-0.341399997472763,0
138900,-0.341814309358597,0
139010,-0.341192841529846,0
139120,-0.341399997472763,0
139230,-0.341814309358597,0
139340,-0.34305727481842,0
139450,-0.34160715341568,0
139550,-0.341399997472763,0
139660,-0.340571343898773,0
139770,-0.341192841529846,0
139880,-0.341399997472763,0
139990,-0.341399997472763,0
140100,-0.341814309358597,0
140210,-0.341399997472763,0
140320,-0.340571343898773,0
140430,-0.342228621244431,0
140540,-0.340985685586929,0
140650,-0.340985685586929,0
140760,-0.340571343898773,0
140870,-0.34160715341568,0
140970,-0.341814309358597,0
141080,-0.342228621244431,0
141190,-0.341399997472763,0
141300,-0.34077849984169,0
141410,-0.34160715341568,0
141520,-0.340571343898773,0
141630,-0.341192841529846,0
141740,-0.341399997472763,0
141850,-0.341192841529846,0
141960,-0.340985685586929,0
142070,-0.342228621244431,0
142180,-0.341814309358597,0
142280,-0.34160715341568,0
142390,-0.341814309358597,0
142500,-0.341192841529846,0
142610,-0.34077849984169,0
142720,-0.341192841529846,0
142830,-0.34160715341568,0
142940,-0.342021465301514,0
143050,-0.341814309358597,0
143160,-0.34077849984169,0
143270,-0.341814309358597,0
143380,-0.34160715341568,0
143490,-0.34160715341568,0
143600,-0.340364187955856,0
143700,-0.340571343898773,0
143810,-0.341192841529846,0
143920,-0.34160715341568,0
144030,-0.342228621244431,0
144140,-0.342228621244431,0
144250,-0.341814309358597,0
144360,-0.341399997472763,0
144470,-0.341192841529846,0
144580,-0.341814309358597,0
144690,-0.34243580698967,0
144800,-0.341192841529846,0
144910,-0.341192841529846,0
145010,-0.341399997472763,0
145120,-0.341814309358597,0
145230,-0.340985685586929,0
145340,-0.34243580698967,0
145450,-0.34243580698967,0
145560,-0.340364187955856,0
145670,-0.341814309358597,0
145780,-0.340985685586929,0
145890,-0.342228621244431,0
146000,-0.342021465301514,0
146110,-0.341192841529846,0
146220,-0.342228621244431,0
146330,-0.341192841529846,0
146430,-0.340985685586929,0
146540,-0.342850118875504,0
146650,-0.342021465301514,0
146760,-0.34160715341568,0
146870,-0.34160715341568,0
146980,-0.341399997472763,0
147090,-0.340157032012939,0
147200,-0.342642962932587,0
147310,-0.340985685586929,0
147420,-0.341399997472763,0
147530,-0.340571343898773,0
147640,-0.341814309358597,0
147740,-0.342021465301514,0
147850,-0.341399997472763,0
147960,-0.34160715341568,0
148070,-0.34077849984169,0
148180,-0.340364187955856,0
148290,-0.342021465301514,0
148400,-0.341399997472763,0
148510,-0.341399997472763,0
148620,-0.342021465301514,0
148730,-0.341192841529846,0
148840,-0.34160715341568,0
148950,-0.342021465301514,0
149060,-0.341814309358597,0
149160,-0.34077849984169,0
149270,-0.340157032012939,0
149380,-0.34077849984169,0
149490,-0.341399997472763,0
149600,-0.340985685586929,0
149710,-0.342021465301514,0
149820,-0.34160715341568,0
149930,-0.341399997472763,0
150040,-0.341399997472763,0
150150,-0.342642962932587,0
150260,-0.34243580698967,0
150370,-0.341814309358597,0
150470,-0.34243580698967,0
150580,-0.340364187955856,0
150690,-0.341192841529846,0
150800,-0.34160715341568,0
150910,-0.342021465301514,0
151020,-0.341814309358597,0
151130,-0.339742720127106,0
151240,-0.339949876070023,0
151350,-0.341814309358597,0
151460,-0.341399997472763,0
151570,-0.34160715341568,0
151680,-0.34160715341568,0
151790,-0.341399997472763,0
151890,-0.342228621244431,0
152000,-0.340985685586929,0
152110,-0.34160715341568,0
152220,-0.341192841529846,0
152330,-0.341192841529846,0
152440,-0.34160715341568,0
152550,-0.342021465301514,0
152660,-0.341192841529846,0
152770,-0.340571343898773,0
152880,-0.341814309358597,0
152990,-0.341192841529846,0
153100,-0.341192841529846,0
153200,-0.341399997472763,0
153310,-0.341399997472763,0
153420,-0.341814309358597,0
153530,-0.341192841529846,0
153640,-0.340985685586929,0
153750,-0.342021465301514,0
153860,-0.341192841529846,0
153970,-0.34243580698967,0
154080,-0.340985685586929,0
154190,-0.34077849984169,0
154300,-0.34305727481842,0
154410,-0.341192841529846,0
154520,-0.34243580698967,0
154620,-0.340985685586929,0
154730,-0.34160715341568,0
154840,-0.34160715341568,0
154950,-0.342228621244431,0
155060,-0.34243580698967,0
155170,-0.34160715341568,0
155280,-0.340985685586929,0
155390,-0.340157032012939,0
155500,-0.341192841529846,0
155610,-0.340364187955856,0
155720,-0.341192841529846,0
155830,-0.34160715341568,0
155930,-0.341399997472763,0
156040,-0.34160715341568,0
156150,-0.340571343898773,0
156260,-0.340985685586929,0
156370,-0.342642962932587,0
156480,-0.342228621244431,0
156590,-0.34077849984169,0
156700,-0.340571343898773,0
156810,-0.341814309358597,0
156920,-0.342228621244431,0
157030,-0.34243580698967,0
157140,-0.34160715341568,0
157250,-0.34077849984169,0
157350,-0.34077849984169,0
157460,-0.340364187955856,0
157570,-0.341399997472763,0
157680,-0.341814309358597,0
157790,-0.342228621244431,0
157900,-0.340571343898773,0
158010,-0.34243580698967,0
158120,-0.341399997472763,0
158230,-0.34243580698967,0
158340,-0.34160715341568,0
158450,-0.340985685586929,0
158560,-0.340571343898773,0
158660,-0.342021465301514,0
158770,-0.341399997472763,0
158880,-0.340985685586929,0
158990,-0.34077849984169,0
159100,-0.341814309358597,0
159210,-0.340985685586929,0
159320,-0.340571343898773,0
159430,-0.341399997472763,0
159540,-0.341192841529846,0
159650,-0.341814309358597,0
159760,-0.341192841529846,0
159870,-0.340157032012939,0
159980,-0.341192841529846,0
160080,-0.34388592839241,0
160190,-0.34305727481842,0
160300,-0.34305727481842,0
160410,-0.344093084335327,0
160520,-0.341192841529846,0
160630,-0.341814309358597,0
160740,-0.343264430761337,0
160850,-0.34160715341568,0
160960,-0.342021465301514,0
161070,-0.341399997472763,0
161180,-0.342642962932587,0
161290,-0.34243580698967,0
161390,-0.342021465301514,0
161500,-0.34388592839241,0
161610,-0.342021465301514,0
161720,-0.34077849984169,0
161830,-0.340157032012939,0
161940,-0.34160715341568,0
162050,-0.340985685586929,0
162160,-0.341814309358597,0
162270,-0.342228621244431,0
162380,-0.341399997472763,0
162490,-0.342228621244431,0
162600,-0.340157032012939,0
162710,-0.340985685586929,0
162810,-0.341192841529846,0
162920,-0.341814309358597,0
163030,-0.341192841529846,0
163140,-0.341814309358597,0
163250,-0.341192841529846,0
163360,-0.341192841529846,0
163470,-0.341192841529846,0
163580,-0.340985685586929,0
163690,-0.34160715341568,0
163800,-0.341814309358597,0
163910,-0.342021465301514,0
164020,-0.342021465301514,0
164120,-0.341399997472763,0
164230,-0.341399997472763,0
164340,-0.34243580698967,0
164450,-0.341814309358597,0
164560,-0.340571343898773,0
164670,-0.341399997472763,0
164780,-0.342228621244431,0
164890,-0.340985685586929,0
165000,-0.341399997472763,0
165110,-0.340985685586929,0
165220,-0.342021465301514,0
165330,-0.341399997472763,0
165440,-0.340571343898773,0
165540,-0.34243580698967,0
165650,-0.342228621244431,0
165760,-0.341399997472763,0
165870,-0.340571343898773,0
165980,-0.341399997472763,0
166090,-0.342021465301514,0
166200,-0.34077849984169,0
166310,-0.34160715341568,0
166420,-0.342021465301514,0
166530,-0.340985685586929,0
166640,-0.34243580698967,0
166750,-0.341192841529846,0
166850,-0.341192841529846,0
166960,-0.34160715341568,0
167070,-0.340157032012939,0
167180,-0.342021465301514,0
167290,-0.342228621244431,0
167400,-0.341399997472763,0
167510,-0.34160715341568,0
167620,-0.34243580698967,0
167730,-0.34160715341568,0
167840,-0.341192841529846,0
167950,-0.341192841529846,0
168060,-0.341399997472763,0
168170,-0.340157032012939,0
168270,-0.341192841529846,0
168380,-0.34160715341568,0
168490,-0.340571343898773,0
168600,-0.341192841529846,0
168710,-0.341399997472763,0
168820,-0.342642962932587,0
168930,-0.342642962932587,0
169040,-0.341192841529846,0
169150,-0.34160715341568,0
169260,-0.340571343898773,0
169370,-0.342021465301514,0
169480,-0.341399997472763,0
169580,-0.341814309358597,0
169690,-0.34160715341568,0
169800,-0.340364187955856,0
169910,-0.34160715341568,0
170020,-0.340985685586929,0
170130,-0.341192841529846,0
170240,-0.341399997472763,0
170350,-0.341399997472763,0
170460,-0.342021465301514,0
170570,-0.341399997472763,0
170680,-0.34160715341568,0
170790,-0.340985685586929,0
170900,-0.34160715341568,0
171000,-0.342228621244431,0
171110,-0.340157032012939,0
171220,-0.340985685586929,0
171330,-0.342021465301514,0
171440,-0.340985685586929,0
171550,-0.340364187955856,0
171660,-0.340985685586929,0
171770,-0.342021465301514,0
171880,-0.34160715341568,0
171990,-0.34160715341568,0
172100,-0.340985685586929,0
172210,-0.340571343898773,0
172310,-0.34243580698967,0
172420,-0.342228621244431,0
172530,-0.340985685586929,0
172640,-0.341192841529846,0
172750,-0.341399997472763,0
172860,-0.34160715341568,0
172970,-0.342021465301514,0
173080,-0.342228621244431,0
173190,-0.341399997472763,0
173300,-0.34077849984169,0
173410,-0.342021465301514,0
173520,-0.341399997472763,0
173630,-0.341399997472763,0
173730,-0.341814309358597,0
173840,-0.34243580698967,0
173950,-0.342021465301514,0
174060,-0.341192841529846,0
174170,-0.340364187955856,0
174280,-0.340985685586929,0
174390,-0.34160715341568,0
174500,-0.341814309358597,0
174610,-0.340985685586929,0
174720,-0.340571343898773,0
174830,-0.341399997472763,0
174940,-0.34160715341568,0
175040,-0.341399997472763,0
175150,-0.34160715341568,0
175260,-0.341192841529846,0
175370,-0.342021465301514,0
175480,-0.341814309358597,0
175590,-0.342228621244431,0
175700,-0.342228621244431,0
175810,-0.34243580698967,0
175920,-0.340157032012939,0
176030,-0.34077849984169,0
176140,-0.34305727481842,0
176250,-0.341814309358597,0
176360,-0.341814309358597,0
176460,-0.340157032012939,0
176570,-0.34077849984169,0
176680,-0.341192841529846,0
176790,-0.340364187955856,0
176900,-0.340157032012939,0
177010,-0.341399997472763,0
177120,-0.340985685586929,0
177230,-0.34160715341568,0
177340,-0.341399997472763,0
177450,-0.339535564184189,0
177560,-0.34077849984169,0
177670,-0.34160715341568,0
177770,-0.34160715341568,0
177880,-0.341814309358597,0
177990,-0.341192841529846,0
178100,-0.342642962932587,0
178210,-0.342021465301514,0
178320,-0.341814309358597,0
178430,-0.341192841529846,0
178540,-0.341399997472763,0
178650,-0.340364187955856,0
178760,-0.341814309358597,0
178870,-0.341814309358597,0
178980,-0.341399997472763,0
179090,-0.342021465301514,0
179190,-0.341192841529846,0
179300,-0.341192841529846,0
179410,-0.34160715341568,0
179520,-0.34243580698967,0
179630,-0.34160715341568,0
179740,-0.341814309358597,0
179850,-0.342228621244431,0
179960,-0.34305727481842,0
180070,-0.340985685586929,0
180180,-0.341814309358597,0
180290,-0.342642962932587,0
180400,-0.341399997472763,0
180500,-0.341192841529846,0
180610,-0.342642962932587,0
180720,-0.339949876070023,0
180830,-0.341814309358597,0
180940,-0.339949876070023,0
181050,-0.341814309358597,0
181160,-0.341399997472763,0
181270,-0.342021465301514,0
181380,-0.341192841529846,0
181490,-0.340985685586929,0
181600,-0.341192841529846,0
181710,-0.341399997472763,0
181820,-0.341399997472763,0
181920,-0.342850118875504,0
182030,-0.34160715341568,0
182140,-0.34243580698967,0
182250,-0.340985685586929,0
182360,-0.34160715341568,0
182470,-0.342021465301514,0
182580,-0.341814309358597,0
182690,-0.342021465301514,0
182800,-0.342642962932587,0
182910,-0.340985685586929,0
183020,-0.34160715341568,0
183130,-0.342642962932587,0
183230,-0.344093084335327,0
183340,-0.34160715341568,0
183450,-0.341814309358597,0
183560,-0.341814309358597,0
183670,-0.339949876070023,0
183780,-0.342021465301514,0
183890,-0.341192841529846,0
184000,-0.34160715341568,0
184110,-0.34160715341568,0
184220,-0.34160715341568,0
184330,-0.342228621244431,100
184440,-0.341814309358597,100
184550,-0.34160715341568,100
184650,-0.343264430761337,100
184760,-0.340985685586929,75.710565378881
184870,-0.34077849984169,69.6610150124679
184980,-0.34077849984169,70.1167426181456
185090,-0.341814309358597,69.5959124067902
185200,-0.341192841529846,69.5308098011125
185310,-0.342021465301514,69.5308098011125
185420,-0.341399997472763,69.4006045897571
185530,-0.342021465301514,68.8797743784017
185640,-0.341192841529846,68.814671772724
185750,-0.341399997472763,69.0099795897571
185860,-0.341192841529846,69.1401848011125
185960,-0.342642962932587,68.8146624067902
186070,-0.342021465301514,68.4891493784017
186180,-0.34243580698967,67.9032071954348
186290,-0.342021465301514,68.033421772724
186400,-0.340985685586929,68.4240374067902
186510,-0.340157032012939,54.9478292508656
186620,-0.340985685586929,54.9999115851612
186730,-0.341192841529846,55.0519939194568
186840,-0.341814309358597,54.9999115851612
186950,-0.342850118875504,54.7915747551958
187060,-0.341399997472763,54.9999040923782
187170,-0.340985685586929,55.1040687609694
187280,-0.341192841529846,54.9998965995953
187380,-0.340157032012939,55.4686451010387
187490,-0.342642962932587,55.1561436024821
187600,-0.342228621244431,54.9478142652997
187710,-0.342228621244431,54.8436495967085
187820,-0.341814309358597,54.9999040923782
187930,-0.341192841529846,55.2082334295607
188040,-0.34077849984169,55.3124055909348
188150,-0.342228621244431,54.8436570894914
188260,-0.34305727481842,54.3228262537524
188370,-0.340157032012939,54.6874100866046
188480,-0.34243580698967,54.5311555909348
188590,-0.34160715341568,54.374908588048
188690,-0.342228621244431,53.9582424209002
188800,-0.34160715341568,53.9061600866046
188910,-0.341399997472763,53.9582424209002
189020,-0.342021465301514,53.8019954180134
189130,-0.34077849984169,54.0103322479787
189240,-0.340985685586929,54.0624145822744
189350,-0.34077849984169,54.374916080831
189460,-0.34243580698967,54.2186615851612
189570,-0.34243580698967,54.1665717580826
189680,-0.342642962932587,54.0623995967085
189790,-0.342228621244431,54.114489423787
189900,-0.341814309358597,53.6978232566392
190010,-0.342021465301514,53.3853217580826
190110,-0.34160715341568,53.7499055909348
190220,-0.341399997472763,53.854070259526
190330,-0.341814309358597,53.854070259526
190440,-0.340364187955856,53.8019879252304
190550,-0.342021465301514,53.4894864266738
190660,-0.341399997472763,53.4374040923782
190770,-0.34160715341568,53.1249025938216
190880,-0.341399997472763,52.812401095265
190990,-0.341399997472763,52.812401095265
191100,-0.342021465301514,52.551989423787
191210,-0.341814309358597,52.4999070894914
191320,-0.341814309358597,52.3957424209002
191420,-0.341192841529846,51.9790762537524
191530,-0.341192841529846,51.8749040923782
191640,-0.341814309358597,51.8228217580826
191750,-0.34077849984169,52.031158588048
191860,-0.340985685586929,52.2394879252304
191970,-0.341399997472763,52.1874055909348
192080,-0.34243580698967,52.2394879252304
192190,-0.342021465301514,52.2394879252304
192300,-0.342021465301514,52.1874055909348
192410,-0.34077849984169,52.291577752309
192520,-0.341399997472763,52.291577752309
192630,-0.342228621244431,51.8228292508656
192740,-0.341399997472763,51.9269939194568
192840,-0.34160715341568,51.9790762537524
192950,-0.342228621244431,51.77074691657
193060,-0.341192841529846,51.9790762537524
193170,-0.342642962932587,51.6144924209002
193280,-0.341399997472763,51.5624100866046
193390,-0.341814309358597,51.510327752309
193500,-0.342021465301514,51.6144999136831
193610,-0.340985685586929,51.77074691657
193720,-0.341192841529846,51.9269939194568
193830,-0.34077849984169,52.291577752309
193940,-0.342228621244431,52.4999145822744
194050,-0.341399997472763,52.3957499136831
194150,-0.340571343898773,52.7082514122397
194260,-0.341192841529846,53.0728352450919
194370,-0.341814309358597,52.9686705765007
194480,-0.34160715341568,52.8645059079095
194590,-0.342642962932587,52.8645059079095
194700,-0.34160715341568,52.4478397407617
194810,-0.340571343898773,52.7603412393183
194920,-0.341399997472763,52.3957574064661
195030,-0.342642962932587,52.1874205765007
195140,-0.341814309358597,52.0832559079095
195250,-0.342228621244431,52.0311735736139
195360,-0.341814309358597,51.8749265707271
195470,-0.342228621244431,51.5624325649534
195570,-0.341399997472763,51.5103502306578
195680,-0.34077849984169,51.6666047263276
195790,-0.341814309358597,51.5624400577364
195900,-0.341399997472763,51.9270238905886
196010,-0.342021465301514,51.8228592219974
196120,-0.342021465301514,51.9270313833715
196230,-0.340571343898773,52.0312035447457
196340,-0.34077849984169,52.2395403747111
196450,-0.340571343898773,52.6041242075633
196560,-0.342021465301514,52.5520418732677
196670,-0.34305727481842,52.2916227090067
196780,-0.341814309358597,52.4999595389721
196880,-0.34243580698967,52.1353757061199
196990,-0.341399997472763,52.1874580404155
197100,-0.342850118875504,52.1353757061199
197210,-0.341814309358597,52.7082963689374
197320,-0.341192841529846,52.8124610375287
197430,-0.342642962932587,52.6041242075633
197540,-0.342228621244431,52.4999595389721
197650,-0.341814309358597,52.0312110375287
197760,-0.34305727481842,51.7707918732677
197870,-0.342228621244431,51.5103802017896
197980,-0.34243580698967,51.3020433718243
198090,-0.340571343898773,51.5624625360852
198200,-0.342228621244431,51.4062155331984
198300,-0.342228621244431,51.4062155331984
198410,-0.342228621244431,51.3020508646072
198520,-0.340985685586929,51.458297867494
198630,-0.34160715341568,51.8749640346418
198740,-0.342021465301514,51.6145523631638
198850,-0.342228621244431,51.2499685303116
198960,-0.341399997472763,51.0937140346418
199070,-0.340985685586929,51.3020433718243
199180,-0.340985685586929,51.3541257061199
199290,-0.341192841529846,51.5624550433023
199400,-0.34243580698967,51.3020358790413
199510,-0.34243580698967,51.1978637176671
199610,-0.341814309358597,51.0416167147803
199720,-0.341399997472763,51.0416167147803
199830,-0.341399997472763,50.9895343804847
199940,-0.340571343898773,51.5103727090067
200050,-0.340985685586929,51.7707843804847
200160,-0.341814309358597,51.9270388761545
200270,-0.34160715341568,52.0312035447457
200380,-0.342021465301514,51.7707918732677
200490,-0.341192841529846,51.5103727090067
200600,-0.34077849984169,51.5624625360852
200710,-0.341814309358597,51.4062155331984
200820,-0.34077849984169,51.6666346974594
200930,-0.341399997472763,52.0312185303116
201030,-0.341814309358597,51.9270538617204
201140,-0.341192841529846,51.8749715274248
201250,-0.342228621244431,51.6145598559468
201360,-0.341399997472763,51.3020583573902
201470,-0.341814309358597,51.5103951873555
201580,-0.342228621244431,51.5103951873555
201690,-0.341399997472763,51.718724524538
201800,-0.341192841529846,51.8749715274248
201910,-0.342228621244431,51.6145598559468
202020,-0.34077849984169,51.6145598559468
202130,-0.341399997472763,51.8228891931292
202240,-0.343678742647171,51.6666421902424
202350,-0.34243580698967,51.0937215274248
202450,-0.341192841529846,51.4062230259814
202560,-0.342021465301514,51.3020583573902
202670,-0.34243580698967,51.2499685303116
202780,-0.34077849984169,51.458305360277
202890,-0.342228621244431,51.2499760230946
203000,-0.34160715341568,51.3541406916858
203110,-0.342228621244431,50.9895568588336
203220,-0.340364187955856,51.1458113545033
203330,-0.341192841529846,51.0416391931292
203440,-0.34160715341568,51.2499760230946
203550,-0.342021465301514,51.3541481844687
203660,-0.341192841529846,51.7187320173209
203760,-0.342021465301514,51.7708143516165
203870,-0.342228621244431,51.6666496830253
203980,-0.34160715341568,51.7708143516165
204090,-0.341814309358597,51.7187320173209
204200,-0.340985685586929,51.8228966859121
204310,-0.340985685586929,52.0312260230946
204420,-0.341814309358597,51.6666421902424
204530,-0.340985685586929,51.9270538617204
204640,-0.341192841529846,51.979136196016
204750,-0.341399997472763,52.0312185303116
204860,-0.341814309358597,51.9270538617204
204970,-0.342021465301514,51.7708068588336
205080,-0.341399997472763,51.9270538617204
205180,-0.34243580698967,51.7707993660506
205290,-0.342021465301514,51.718717031755
205400,-0.34160715341568,51.6145523631638
205510,-0.341192841529846,51.6145523631638
205620,-0.341192841529846,51.7707993660506
205730,-0.342021465301514,51.458297867494
205840,-0.34160715341568,51.3020508646072
205950,-0.340364187955856,51.5624700288682
206060,-0.34160715341568,51.7708068588336
206170,-0.34160715341568,51.8749715274248
206280,-0.342642962932587,51.718717031755
206390,-0.341814309358597,51.458297867494
206490,-0.341814309358597,51.3541331989028
206600,-0.342021465301514,51.4062155331984
206710,-0.34160715341568,51.3541331989028
206820,-0.341814309358597,51.3020508646072
206930,-0.341399997472763,51.5103802017896
207040,-0.342228621244431,51.2499685303116
207150,-0.342021465301514,51.4062230259814
207260,-0.341399997472763,51.4062230259814
207370,-0.342228621244431,51.3020583573902
207480,-0.340571343898773,51.6666421902424
207590,-0.342228621244431,51.3541481844687
207700,-0.340985685586929,51.4062305187643
207810,-0.34160715341568,51.1978936887989
207910,-0.341399997472763,51.4062230259814
208020,-0.340571343898773,51.6145598559468
208130,-0.342228621244431,51.1978936887989
208240,-0.34160715341568,51.0937290202077
208350,-0.341814309358597,51.0937290202077
208460,-0.34160715341568,51.0937290202077
208570,-0.341814309358597,51.3020658501731
208680,-0.342021465301514,51.1979011815819
208790,-0.34305727481842,50.5728981844687
208900,-0.341192841529846,50.6249805187643
209010,-0.342021465301514,50.7812350144341
209120,-0.342021465301514,50.7291526801385
209220,-0.34077849984169,51.0937365129907
209330,-0.342021465301514,51.0416541786951
209440,-0.34160715341568,51.1979011815819
209550,-0.341192841529846,51.2499835158775
209660,-0.340985685586929,51.1978936887989
209770,-0.34243580698967,51.0416391931292
209880,-0.340571343898773,51.2499760230946
209990,-0.34077849984169,51.5624775216512
210100,-0.342228621244431,51.5103951873555
210210,-0.341814309358597,51.1978936887989
210320,-0.341192841529846,51.0937215274248
210430,-0.341814309358597,50.7812200288682
210540,-0.342228621244431,50.7291376945726
210640,-0.341814309358597,51.0416391931292
210750,-0.342021465301514,50.9895568588336
210860,-0.341399997472763,51.2499760230946
210970,-0.340985685586929,51.3541406916858
211080,-0.34243580698967,51.458305360277
211190,-0.341399997472763,51.5624700288682
211300,-0.34160715341568,51.458305360277
211410,-0.341814309358597,51.6666421902424
211520,-0.342228621244431,51.6666421902424
211630,-0.342021465301514,51.6145598559468
211740,-0.341399997472763,52.0312260230946
211850,-0.34243580698967,51.979136196016
211950,-0.342021465301514,52.0833083573902
212060,-0.340985685586929,51.979136196016
212170,-0.34077849984169,52.3437200288682
212280,-0.342228621244431,52.3437200288682
212390,-0.342642962932587,52.239547867494
212500,-0.341814309358597,52.0312185303116
212610,-0.341399997472763,52.0833008646072
212720,-0.34243580698967,51.979128703233
212830,-0.342642962932587,51.8749565418589
212940,-0.34305727481842,51.4582903747111
213050,-0.341192841529846,51.4062080404155
213160,-0.342228621244431,51.0937140346418
213270,-0.340571343898773,51.2499685303116
213370,-0.34077849984169,51.6666421902424
213480,-0.340985685586929,52.0312260230946
213590,-0.341399997472763,52.1353906916858
213700,-0.341814309358597,52.0312260230946
213810,-0.341814309358597,51.9270613545033
213920,-0.340364187955856,51.9791436887989
214030,-0.340985685586929,51.9791436887989
214140,-0.340571343898773,52.2916451873555
214250,-0.342228621244431,52.1353981844687
214360,-0.341814309358597,52.1874805187643
214470,-0.341399997472763,52.1353981844687
214580,-0.341814309358597,51.8749790202077
214680,-0.342021465301514,51.8228966859121
214790,-0.341192841529846,51.718724524538
214900,-0.341399997472763,51.718724524538
215010,-0.342228621244431,51.6145598559468
215120,-0.343264430761337,51.0937290202077
215230,-0.341814309358597,51.1978936887989
215340,-0.342021465301514,51.0416466859121
215450,-0.341814309358597,51.0416466859121
215560,-0.341192841529846,51.3020583573902
215670,-0.342021465301514,51.1458113545033
215780,-0.340157032012939,51.4062305187643
215890,-0.341192841529846,51.6666421902424
216000,-0.34243580698967,51.2499685303116
216100,-0.340985685586929,51.3541331989028
216210,-0.341814309358597,51.8228817003462
216320,-0.342021465301514,51.9270538617204
216430,-0.341192841529846,51.9270538617204
216540,-0.342228621244431,51.8749715274248
216650,-0.342642962932587,51.8228891931292
216760,-0.342021465301514,51.5103876945726
216870,-0.342228621244431,51.5103876945726
216980,-0.340985685586929,51.6666346974594
217090,-0.342021465301514,51.718717031755
217200,-0.34160715341568,51.4062155331984
217310,-0.340985685586929,51.458297867494
217410,-0.341399997472763,51.5103802017896
217520,-0.342642962932587,51.3541257061199
217630,-0.34160715341568,51.2499610375287
217740,-0.342642962932587,51.0937065418589
217850,-0.34160715341568,51.2499535447457
217960,-0.340364187955856,51.5624550433023
218070,-0.34077849984169,51.8228742075633
218180,-0.341814309358597,51.6145448703809
218290,-0.342642962932587,51.197878703233
218400,-0.34160715341568,51.2499610375287
218510,-0.341399997472763,51.1457963689374
218620,-0.34243580698967,50.8332948703809
218730,-0.339949876070023,51.197878703233
218830,-0.34243580698967,51.0416242075633
218940,-0.341192841529846,51.2499535447457
219050,-0.341814309358597,51.1457888761545
219160,-0.340571343898773,51.6145448703809
219270,-0.340985685586929,51.8749565418589
219380,-0.34160715341568,51.8749565418589
219490,-0.341192841529846,51.8749565418589
219600,-0.342021465301514,51.6666272046765
219710,-0.34160715341568,51.7707918732677
219820,-0.341814309358597,51.7187095389721
219930,-0.34243580698967,51.1978712104501
220040,-0.341814309358597,51.1457888761545
220140,-0.34160715341568,51.1457888761545
220250,-0.342021465301514,51.3020433718243
220360,-0.341399997472763,51.4062080404155
220470,-0.341399997472763,51.5103727090067
220580,-0.340571343898773,51.8749565418589
220690,-0.341814309358597,51.8228742075633
220800,-0.342021465301514,51.7707918732677
220910,-0.34077849984169,51.9270463689374
221020,-0.34160715341568,52.0832933718243
221130,-0.341399997472763,52.2395403747111
221240,-0.341814309358597,52.1353757061199
221350,-0.341192841529846,52.3957873775979
221460,-0.342021465301514,52.0312035447457
221560,-0.341814309358597,52.1353682133369
221670,-0.340985685586929,52.1353682133369
221780,-0.341399997472763,52.1874505476325
221890,-0.342021465301514,52.0312035447457
222000,-0.342228621244431,51.6145373775979
222110,-0.341814309358597,51.7187020461891
222220,-0.341192841529846,51.8228667147803
222330,-0.34160715341568,51.8749490490759
222440,-0.342850118875504,51.5624475505193
222550,-0.34305727481842,51.2499460519627
222660,-0.34243580698967,51.1457738905886
222770,-0.341814309358597,51.4582753891452
222870,-0.342021465301514,51.2499460519627
222980,-0.340364187955856,51.6666122191106
223090,-0.34160715341568,51.7707768877018
223200,-0.340364187955856,51.874941556293
223310,-0.34160715341568,51.9791062248842
223420,-0.341192841529846,52.0832708934754
223530,-0.341814309358597,51.9270238905886
223640,-0.342021465301514,51.6666122191106
223750,-0.341814309358597,51.8228667147803
223860,-0.341399997472763,51.6145298848149
223970,-0.34160715341568,51.4061930548496
224080,-0.341814309358597,51.5103577234408
224190,-0.34160715341568,51.5624400577364
224290,-0.341814309358597,51.4061930548496
224400,-0.34305727481842,51.093691556293
224510,-0.342228621244431,51.093691556293
224620,-0.34243580698967,50.9374370606232
224730,-0.341814309358597,50.9895193949188
224840,-0.341814309358597,50.8853547263276
224950,-0.34077849984169,50.9374445534062
225060,-0.342228621244431,50.9895343804847
225170,-0.340571343898773,51.1978712104501
225280,-0.340985685586929,51.3541182133369
225390,-0.341192841529846,51.5103652162237
225500,-0.34077849984169,51.8749490490759
225600,-0.34160715341568,51.9791137176671
225710,-0.341192841529846,52.0311960519627
225820,-0.34243580698967,52.0311960519627
225930,-0.34243580698967,51.9270238905886
226040,-0.34243580698967,51.5624400577364
226150,-0.34160715341568,51.354103227771
226260,-0.341399997472763,51.5624325649534
226370,-0.34077849984169,52.0311885591798
226480,-0.342021465301514,51.9791062248842
226590,-0.342642962932587,51.6666047263276
226700,-0.342228621244431,51.7186945534062
226810,-0.34243580698967,51.7707768877018
226920,-0.341814309358597,52.0832783862584
227020,-0.342228621244431,51.8228667147803
227130,-0.341399997472763,52.0311960519627
227240,-0.34243580698967,51.5624400577364
227350,-0.340985685586929,51.5103502306578
227460,-0.34160715341568,51.354103227771
227570,-0.341399997472763,51.354103227771
227680,-0.34243580698967,51.1978487321012
227790,-0.342642962932587,50.9895119021359
227900,-0.341814309358597,50.6249280692837
228010,-0.342021465301514,50.3645163978056
228120,-0.341399997472763,50.1561795678403
228230,-0.34160715341568,50.3124265707271
228330,-0.34077849984169,50.5728457349881
228440,-0.342228621244431,50.3645163978056
228550,-0.34243580698967,50.2082619021359
228660,-0.341814309358597,50.2603442364315
228770,-0.341399997472763,50.2082619021359
228880,-0.343264430761337,49.7395134006925
228990,-0.34160715341568,49.8957604035793
229100,-0.340985685586929,50.4686735736139
229210,-0.341399997472763,50.5728382422051
229320,-0.342021465301514,50.5728382422051
229430,-0.341399997472763,50.6770029107963
229540,-0.342228621244431,50.4165912393183
229650,-0.342228621244431,50.3645089050227
229750,-0.341814309358597,49.9478427378749
229860,-0.339742720127106,50.3124265707271
229970,-0.341192841529846,50.6249280692837
230080,-0.340985685586929,50.6249280692837
230190,-0.341399997472763,50.7290927378749
230300,-0.34077849984169,51.0415942364315
230410,-0.341192841529846,51.0415942364315
230520,-0.342642962932587,50.9374220750573
230630,-0.341399997472763,51.2499235736139
230740,-0.34077849984169,51.5624250721705
230850,-0.340571343898773,51.9790912393183
230960,-0.342021465301514,51.7186795678403
231060,-0.34077849984169,52.0311810663968
231170,-0.342850118875504,51.7186795678403
231280,-0.341814309358597,51.5103502306578
231390,-0.342228621244431,51.3020208934754
231500,-0.34160715341568,51.5624400577364
231610,-0.341399997472763,51.614522392032
231720,-0.341192841529846,51.9791062248842
231830,-0.342021465301514,51.874941556293
231940,-0.341814309358597,51.5103577234408
232050,-0.342228621244431,51.1457738905886
232160,-0.342021465301514,51.093691556293
232270,-0.34077849984169,51.5624475505193
232380,-0.34077849984169,51.7707843804847
232480,-0.34160715341568,51.7187020461891
232590,-0.34160715341568,51.9270388761545
232700,-0.341399997472763,51.5624550433023
232810,-0.341399997472763,51.8228742075633
232920,-0.342642962932587,51.4582903747111
233030,-0.340985685586929,51.6666197118935
233140,-0.340157032012939,51.7707843804847
233250,-0.34160715341568,51.6145373775979
233360,-0.34160715341568,51.6145373775979
233470,-0.342228621244431,51.3541257061199
233580,-0.34243580698967,51.2499535447457
233690,-0.343264430761337,50.8332873775979
233790,-0.34243580698967,50.6770328819281
233900,-0.341814309358597,50.8332873775979
234010,-0.342642962932587,50.6249505476325
234120,-0.341399997472763,50.6770328819281
234230,-0.34077849984169,50.9895343804847
234340,-0.342642962932587,50.6770328819281
234450,-0.34160715341568,50.6249505476325
234560,-0.341399997472763,50.4166137176671
234670,-0.34160715341568,50.4686960519627
234780,-0.343264430761337,50.1561945534062
234890,-0.339742720127106,50.4166062248842
235000,-0.34160715341568,50.4166062248842
235110,-0.342642962932587,50.1041047263276
235210,-0.342642962932587,49.8957678963622
235320,-0.34160715341568,49.791603227771
235430,-0.34077849984169,50.1041047263276
235540,-0.34160715341568,50.1561870606232
235650,-0.341399997472763,50.052022392032
235760,-0.341399997472763,50.052022392032
235870,-0.341399997472763,50.2082693949188
235980,-0.342021465301514,50.2603517292144
236090,-0.342228621244431,50.1561870606232
236200,-0.342642962932587,49.791603227771
236310,-0.341399997472763,49.8436855620666
236420,-0.342021465301514,50.052022392032
236520,-0.34160715341568,50.4166062248842
236630,-0.341399997472763,50.6770253891452
236740,-0.340985685586929,50.8853547263276
236850,-0.34160715341568,50.9895193949188
236960,-0.34160715341568,50.6770178963622
237070,-0.341814309358597,50.6249355620666
237180,-0.340985685586929,50.4686810663968
237290,-0.341814309358597,50.4165987321012
237400,-0.341399997472763,50.3645163978056
237510,-0.34077849984169,50.6249355620666
237620,-0.342850118875504,50.4165987321012
237730,-0.34160715341568,50.4686810663968
237840,-0.34077849984169,50.6249355620666
237940,-0.341814309358597,50.572853227771
238050,-0.341192841529846,50.7291002306578
238160,-0.342021465301514,50.6249355620666
238270,-0.342021465301514,50.572853227771
238380,-0.34160715341568,50.9374370606232
238490,-0.341399997472763,51.1457663978056
238600,-0.340571343898773,51.614522392032
238710,-0.34243580698967,51.4582678963622
238820,-0.342228621244431,51.354103227771
238930,-0.341399997472763,51.1978487321012
239040,-0.342228621244431,51.1978487321012
239150,-0.340985685586929,51.0936765707271
239250,-0.342228621244431,50.7811825649534
239360,-0.340985685586929,50.833264899249
239470,-0.342228621244431,50.4686810663968
239580,-0.342228621244431,50.31243406351
239690,-0.341399997472763,50.2603517292144
239800,-0.342021465301514,50.3645238905886
239910,-0.342021465301514,50.4686960519627
240020,-0.342021465301514,50.5728682133369
240130,-0.342228621244431,50.4166212104501
240240,-0.342642962932587,50.1041197118935
240350,-0.34077849984169,50.1041197118935
240460,-0.341399997472763,50.2603667147803
240570,-0.342021465301514,50.4166212104501
240670,-0.342228621244431,50.4166212104501
240780,-0.341399997472763,50.6770403747111
240890,-0.34243580698967,50.5207858790413
241000,-0.340985685586929,50.8332798848149
241110,-0.341814309358597,50.7291152162237
241220,-0.340985685586929,51.0936990490759
241330,-0.341192841529846,51.0416167147803
241440,-0.342021465301514,50.9374520461891
241550,-0.341814309358597,50.8332873775979
241660,-0.34243580698967,50.8332873775979
241770,-0.341192841529846,51.1978712104501
241880,-0.342228621244431,51.0937065418589
241980,-0.342850118875504,50.8853697118935
242090,-0.34160715341568,50.8332873775979
242200,-0.342228621244431,50.6770403747111
242310,-0.34077849984169,50.6770403747111
242420,-0.34160715341568,50.8332873775979
242530,-0.341814309358597,50.9895418732677
242640,-0.341814309358597,50.9895418732677
242750,-0.34243580698967,50.7291227090067
242860,-0.342228621244431,50.9895418732677
242970,-0.34160715341568,50.9895418732677
243080,-0.342021465301514,50.7291302017896
243190,-0.342850118875504,50.3645463689374
243300,-0.34160715341568,50.4687110375287
243400,-0.34160715341568,50.416628703233
243510,-0.342021465301514,50.4687110375287
243620,-0.342021465301514,50.5207933718243
243730,-0.341814309358597,50.5207933718243
243840,-0.342228621244431,49.895797867494
243950,-0.342642962932587,49.5312140346418
244060,-0.34160715341568,49.374967031755
244190,-0.341192841529846,49.4270493660506
244280,-0.340571343898773,49.4791317003462
244390,-0.34243580698967,49.1666302017896
244500,-0.34077849984169,49.635386196016
244610,-0.341814309358597,49.5312215274248
244710,-0.341814309358597,49.2708023631638
244820,-0.342228621244431,48.854136196016
244930,-0.342021465301514,48.854136196016
245040,-0.340985685586929,48.8020463689374
245150,-0.34243580698967,48.9062110375286
245260,-0.342850118875504,48.6457918732677
245370,-0.341814309358597,48.7499565418589
245480,-0.340985685586929,48.9062035447457
245590,-0.341814309358597,48.8020388761545
245700,-0.341192841529846,48.8020388761545
245810,-0.340985685586929,49.0624505476325
245920,-0.343264430761337,48.6978667147803
246030,-0.342021465301514,48.7499490490759
246130,-0.34077849984169,49.0624505476325
246240,-0.341814309358597,48.8020313833715
246350,-0.342021465301514,48.4895298848149
246460,-0.342228621244431,48.3332828819281
246570,-0.342228621244431,48.1770358790413
246680,-0.341814309358597,48.0728712104501
246790,-0.342228621244431,47.8645418732677
246900,-0.34305727481842,47.7603772046765
247010,-0.340157032012939,47.9687140346418
247120,-0.342021465301514,47.4999655331984
247230,-0.34160715341568,47.4999655331984
247340,-0.342021465301514,47.3958008646072
247440,-0.342228621244431,47.3958008646072
247550,-0.341192841529846,47.7083023631638
247660,-0.340985685586929,48.2812155331984
247770,-0.340364187955856,48.8020538617204
247880,-0.34243580698967,48.6457993660506
247990,-0.342228621244431,48.7499715274248
248100,-0.342228621244431,48.5416421902424
248210,-0.341814309358597,48.2812230259814
248320,-0.34077849984169,48.7499790202077
248430,-0.34160715341568,48.7499790202077
248540,-0.34160715341568,48.6978966859121
248650,-0.341399997472763,48.7499790202077
248760,-0.342021465301514,49.0624805187643
248860,-0.341814309358597,48.5416496830253
248970,-0.342642962932587,48.2812305187643
249080,-0.341192841529846,48.6458143516165
249190,-0.341192841529846,49.0103981844687
249300,-0.341814309358597,48.9583158501731
249410,-0.341814309358597,48.6978966859121
249520,-0.342228621244431,48.5416496830253
249630,-0.343678742647171,47.9687365129907
249740,-0.342228621244431,47.7604071758083
249850,-0.342228621244431,47.5520778386258
249960,-0.342228621244431,47.4999955043302
250070,-0.341192841529846,47.7604071758083
250170,-0.341192841529846,48.1249910086605
250280,-0.34243580698967,47.8645718443995
250390,-0.341814309358597,47.9166541786951
250500,-0.341399997472763,47.9687365129907
250610,-0.342021465301514,47.8124895101039
250720,-0.342228621244431,47.4999955043302
250830,-0.340571343898773,47.7604146685912
250940,-0.34243580698967,47.5520778386258
251050,-0.34160715341568,47.6041601729214
251160,-0.34243580698967,47.2395763400692
251270,-0.341192841529846,47.3958233429561
251380,-0.341814309358597,47.2916586743649
251490,-0.341192841529846,47.1874865129907
251590,-0.340985685586929,47.6562350144341
251700,-0.342228621244431,47.4999880115473
251810,-0.340571343898773,47.5520703458429
251920,-0.342228621244431,47.4479056772517
252030,-0.341399997472763,47.3958233429561
252140,-0.341814309358597,47.4479056772517
252250,-0.342021465301514,47.4479056772517
252360,-0.342021465301514,47.3437410086605
252470,-0.34160715341568,47.2916586743649
252580,-0.340985685586929,47.1874865129907
252690,-0.341192841529846,47.4999880115473
252800,-0.341814309358597,47.6041526801385
252900,-0.342850118875504,47.2395688472863
253010,-0.342642962932587,47.1353966859121
253120,-0.342228621244431,46.8229026801385
253230,-0.340364187955856,47.2916511815819
253340,-0.34243580698967,46.9270673487297
253450,-0.341814309358597,47.0312320173209
253560,-0.340571343898773,47.4478981844687
253670,-0.342850118875504,47.0833143516165
253780,-0.341814309358597,47.1353966859121
253890,-0.342021465301514,47.1353966859121
254000,-0.34160715341568,47.2395613545033
254110,-0.34243580698967,47.1874715274248
254220,-0.341399997472763,47.4999730259814
254320,-0.341814309358597,47.2395538617204
254430,-0.342850118875504,46.8749700288682
254540,-0.34243580698967,46.770797867494
254650,-0.341192841529846,47.0312095389721
254760,-0.341192841529846,47.0832918732677
254870,-0.34160715341568,47.291628703233
254980,-0.341399997472763,47.1874640346418
255090,-0.340571343898773,47.4999655331984
255200,-0.342228621244431,47.1874715274248
255310,-0.343264430761337,46.6666406916858
255420,-0.342021465301514,46.6666406916858
255530,-0.340985685586929,46.8749700288682
255630,-0.342021465301514,46.9791421902424
255740,-0.342021465301514,46.7708128530599
255850,-0.340985685586929,47.0833068588336
255960,-0.340985685586929,47.552055360277
256070,-0.34077849984169,47.7603921902424
256180,-0.342228621244431,47.7603921902424
256290,-0.341192841529846,47.6562200288682
256400,-0.34160715341568,47.6562200288682
256510,-0.342021465301514,47.6041376945726
256620,-0.34160715341568,47.6562200288682
256730,-0.342228621244431,47.7083098559468
256840,-0.341192841529846,47.9687215274248
256950,-0.341399997472763,48.0208038617204
257050,-0.342021465301514,48.0208038617204
257160,-0.342228621244431,48.1770583573902
257270,-0.34243580698967,47.9687215274248
257380,-0.340985685586929,48.1249685303116
257490,-0.341814309358597,48.1770508646072
257600,-0.341192841529846,48.3853802017896
257710,-0.34077849984169,48.6457993660506
257820,-0.34160715341568,48.8020463689374
257930,-0.34077849984169,49.2708023631638
258040,-0.34160715341568,49.2708023631638
258150,-0.341399997472763,49.2187200288682
258260,-0.34243580698967,48.7499640346418
258360,-0.340985685586929,49.114547867494
258470,-0.342642962932587,48.6457918732677
258580,-0.342021465301514,48.5937095389721
258690,-0.341399997472763,48.6978742075633
258800,-0.341399997472763,48.9062035447457
258910,-0.340157032012939,49.3749520461891
259020,-0.341814309358597,49.1666227090067
259130,-0.342021465301514,49.2707948703809
259240,-0.342021465301514,49.4791317003462
259350,-0.341814309358597,49.4791317003462
259460,-0.342021465301514,49.2187200288682
259570,-0.342021465301514,49.1666376945726
259680,-0.340985685586929,49.2187200288682
259780,-0.341814309358597,49.0103906916858
259890,-0.341192841529846,49.5312215274248
260000,-0.34160715341568,49.635386196016
260110,-0.342642962932587,49.1666302017896
260220,-0.342642962932587,48.9582933718243
260330,-0.343471586704254,48.5937095389721
260440,-0.343471586704254,48.2812080404155
260550,-0.342228621244431,48.2812080404155
260660,-0.34160715341568,48.3332903747111
260770,-0.34243580698967,48.2812005476325
260880,-0.342021465301514,48.5416197118935
260990,-0.342228621244431,48.0207888761545
261090,-0.34160715341568,48.1249535447457
261200,-0.341399997472763,48.1770358790413
261310,-0.34243580698967,48.0728637176671
261420,-0.34243580698967,48.0207738905886
261530,-0.341399997472763,47.968691556293
261640,-0.340364187955856,48.1249460519627
261750,-0.34160715341568,47.8124445534062
261860,-0.340985685586929,48.1770283862584
261970,-0.341192841529846,48.4374400577364
262080,-0.342228621244431,48.4374400577364
262190,-0.341399997472763,48.5416047263276
262300,-0.341399997472763,48.3853502306578
262410,-0.341399997472763,48.4374325649534
262510,-0.341399997472763,48.489514899249
262620,-0.341814309358597,48.3853502306578
262730,-0.341814309358597,48.4374325649534
262840,-0.341814309358597,48.4374325649534
262950,-0.342642962932587,48.4374325649534
263060,-0.34160715341568,48.3332678963622
263170,-0.342228621244431,48.0728562248842
263280,-0.341399997472763,48.1770208934754
263390,-0.342228621244431,48.0728562248842
263500,-0.341192841529846,48.3332678963622
263610,-0.342228621244431,48.6978517292144
263720,-0.34160715341568,48.8540987321012
263820,-0.342021465301514,48.9061810663968
263930,-0.340985685586929,49.2186750721705
264040,-0.34160715341568,49.1145104035793
264150,-0.340571343898773,49.270764899249
264260,-0.341814309358597,49.4270193949188
264370,-0.342021465301514,49.3749370606232
264480,-0.341399997472763,49.3749370606232
264590,-0.342228621244431,49.3228547263276
264700,-0.340985685586929,49.6353487321012
264810,-0.342021465301514,49.270764899249
264920,-0.341192841529846,49.5832663978056
265030,-0.341399997472763,49.6353487321012
265140,-0.342850118875504,49.53118406351
265240,-0.343264430761337,49.010353227771
265350,-0.34160715341568,49.0624355620666
265460,-0.341399997472763,49.010353227771
265570,-0.341399997472763,48.9061885591798
265680,-0.34160715341568,49.0624355620666
265790,-0.343264430761337,48.3853502306578
265900,-0.341399997472763,48.5936795678403
266010,-0.341192841529846,48.6457619021359
266120,-0.341399997472763,48.7499265707271
266230,-0.341192841529846,48.9582559079095
266340,-0.34243580698967,48.8540837465353
266450,-0.342642962932587,48.5936645822744
266550,-0.34160715341568,48.4374175793875
266660,-0.342021465301514,48.2290882422051
266770,-0.34243580698967,48.0728337465353
266880,-0.341814309358597,48.3332529107963
266990,-0.34160715341568,48.5936720750573
267100,-0.341192841529846,48.8540837465353
267210,-0.342021465301514,48.4374175793875
267320,-0.341399997472763,48.6978367436485
267430,-0.341814309358597,48.6978367436485
267540,-0.342021465301514,48.3332529107963
267650,-0.342228621244431,48.4895074064661
267760,-0.340571343898773,48.8020089050227
267870,-0.342021465301514,48.8020089050227
267970,-0.341399997472763,48.8540912393183
268080,-0.34243580698967,48.8540912393183
268190,-0.342642962932587,48.5415897407617
268300,-0.342642962932587,48.3332529107963
268410,-0.340985685586929,48.8020014122397
268520,-0.34243580698967,48.8020014122397
268630,-0.340364187955856,49.0103382422051
268740,-0.341399997472763,48.9582559079095
268850,-0.341399997472763,49.0103382422051
268960,-0.341814309358597,48.9061735736139
269070,-0.341399997472763,48.6978367436485
269180,-0.341192841529846,48.9582484151265
269280,-0.34243580698967,49.166577752309
269390,-0.34160715341568,49.2707424209002
269500,-0.342021465301514,49.0103307494222
269610,-0.341192841529846,49.2186600866046
269720,-0.339949876070023,49.7394909223436
269830,-0.342021465301514,49.4790792508656
269940,-0.342850118875504,49.0103307494222
270050,-0.342850118875504,48.4894924209002
270160,-0.342228621244431,48.4894924209002
270270,-0.342642962932587,48.124908588048
270380,-0.342228621244431,47.9686615851612
270490,-0.34160715341568,48.0728262537524
270600,-0.341399997472763,48.124908588048
270700,-0.340571343898773,48.5415747551958
270810,-0.341399997472763,48.4894924209002
270920,-0.342021465301514,48.3332454180134
271030,-0.340364187955856,48.7499115851612
271140,-0.34160715341568,48.906158588048
271250,-0.341399997472763,49.166577752309
271360,-0.341399997472763,49.0624130837178
271470,-0.34305727481842,48.7499115851612
271580,-0.342021465301514,48.5415822479787
271690,-0.342021465301514,48.2290807494222
271800,-0.34077849984169,48.4374175793875
271910,-0.341192841529846,48.3332454180134
272010,-0.340985685586929,48.4894924209002
272120,-0.341399997472763,48.4894924209002
272230,-0.341814309358597,48.64574691657
272340,-0.34160715341568,48.4894999136831
272450,-0.34077849984169,48.9582559079095
272560,-0.34160715341568,49.0624205765007
272670,-0.34160715341568,49.0103382422051
272780,-0.341399997472763,49.0103382422051
272890,-0.341814309358597,48.5936720750573
273000,-0.342021465301514,48.5415897407617
273110,-0.342642962932587,48.3853352450919
273220,-0.340985685586929,48.64574691657
273330,-0.342850118875504,48.385327752309
273430,-0.341399997472763,48.5415747551958
273540,-0.341192841529846,48.7499040923782
273650,-0.341192841529846,48.6978217580826
273760,-0.342850118875504,48.4374025938216
273870,-0.342021465301514,48.2290732566392
273980,-0.341814309358597,48.1769909223436
274090,-0.340985685586929,48.5936570894914
274200,-0.34160715341568,48.8540762537524
274310,-0.34077849984169,49.5311615851612
274420,-0.342021465301514,49.8957454180134
274530,-0.342021465301514,49.947827752309
274640,-0.343264430761337,49.5311615851612
274740,-0.343678742647171,49.2186675793875
274850,-0.342021465301514,49.2186675793875
274960,-0.341814309358597,49.3228322479787
275070,-0.34077849984169,49.5311690779441
275180,-0.342021465301514,49.3749220750573
275290,-0.34243580698967,49.3749220750573
275400,-0.342021465301514,49.4790942364315
275510,-0.342021465301514,49.3228472335447
275620,-0.34160715341568,49.0103457349881
275730,-0.34243580698967,48.8020089050227
275840,-0.342642962932587,48.3853427378749
275950,-0.341814309358597,48.2290957349881
276060,-0.341192841529846,48.4895074064661
276160,-0.342850118875504,48.1249235736139
276270,-0.341814309358597,48.0207589050227
276380,-0.34305727481842,47.6040927378749
276490,-0.341814309358597,47.4999280692837
276600,-0.340571343898773,47.8124295678403
276710,-0.34077849984169,48.0728487321012
276820,-0.340985685586929,48.2811780692837
276930,-0.341192841529846,48.6457619021359
277040,-0.34160715341568,48.6457619021359
277150,-0.342021465301514,48.6978442364315
277260,-0.34243580698967,48.4374250721705
277370,-0.34160715341568,48.5936720750573
277470,-0.34077849984169,48.6978442364315
277580,-0.341814309358597,48.8020089050227
277690,-0.340364187955856,49.1145104035793
277800,-0.34160715341568,49.2186750721705
277910,-0.342021465301514,48.9582634006925
278020,-0.341814309358597,48.9061810663968
278130,-0.342021465301514,48.5415972335447
278240,-0.342642962932587,48.3332604035793
278350,-0.341814309358597,48.3853427378749
278460,-0.341192841529846,48.4374250721705
278570,-0.341399997472763,48.6457544093529
278680,-0.341399997472763,48.5415897407617
278790,-0.342228621244431,48.4895074064661
278890,-0.342021465301514,48.2811780692837
279000,-0.34305727481842,47.8645119021359
279110,-0.341399997472763,48.2290957349881
279220,-0.341814309358597,48.5936795678403
279330,-0.340985685586929,48.7499265707271
279440,-0.342850118875504,48.3853427378749
279550,-0.341192841529846,48.4374250721705
279660,-0.341814309358597,48.3853427378749
279770,-0.341814309358597,48.7499265707271
279880,-0.340985685586929,48.8540912393183
279990,-0.341814309358597,48.6978442364315
280100,-0.340985685586929,48.8020089050227
280210,-0.341399997472763,48.7499265707271
280310,-0.34243580698967,48.7499265707271
280420,-0.341399997472763,49.0624280692837
280530,-0.340985685586929,49.2186750721705
280640,-0.34243580698967,49.1145029107963
280750,-0.34160715341568,49.3228397407617
280860,-0.342642962932587,49.1145029107963
280970,-0.34160715341568,49.1145029107963
281080,-0.34243580698967,48.8020014122397
281190,-0.34160715341568,48.9061660808309
281300,-0.341814309358597,48.8020014122397
281410,-0.341192841529846,48.9582484151265
281520,-0.341192841529846,49.166577752309
281620,-0.34077849984169,49.5311615851612
281730,-0.342021465301514,49.166577752309
281840,-0.34243580698967,49.0624055909348
281950,-0.341399997472763,49.0624055909348
282060,-0.341399997472763,49.3228247551958
282170,-0.34243580698967,49.3749070894914
282280,-0.341399997472763,49.687408588048
282390,-0.34243580698967,49.3228247551958
282500,-0.341192841529846,49.6353262537524
282610,-0.34160715341568,49.3228247551958
282720,-0.342021465301514,49.166577752309
282830,-0.341814309358597,49.0624130837178
282940,-0.34243580698967,48.906158588048
283040,-0.34160715341568,48.8540762537524
283150,-0.34160715341568,48.7499115851612
283260,-0.342228621244431,48.8020014122397
283370,-0.340985685586929,48.9582484151265
283480,-0.341399997472763,49.1144954180134
283590,-0.340985685586929,49.166577752309
283700,-0.342228621244431,48.5936645822744
283810,-0.342021465301514,48.5936645822744
283920,-0.34160715341568,48.9061660808309
284030,-0.34077849984169,49.4270044093529
284140,-0.341814309358597,49.5311690779441
284250,-0.34243580698967,49.5832514122397
284350,-0.340571343898773,49.9999175793875
284460,-0.341192841529846,50.1040822479787
284570,-0.341399997472763,50.1040822479787
284680,-0.342642962932587,49.5832439194568
284790,-0.342228621244431,49.3749145822744
284900,-0.34077849984169,49.6874160808309
285010,-0.34160715341568,49.3749145822744
285120,-0.341192841529846,49.4790792508656
285230,-0.342021465301514,49.3228322479787
285340,-0.341399997472763,49.3228322479787
285450,-0.342021465301514,49.5832514122397
285560,-0.34243580698967,49.4790792508656
285670,-0.34160715341568,49.5832439194568
285770,-0.342021465301514,49.2707424209002
285880,-0.34077849984169,49.3749145822744
285990,-0.342228621244431,49.0624205765007
286100,-0.341399997472763,49.0624205765007
286210,-0.341192841529846,49.2186675793875
286320,-0.342642962932587,48.9582484151265
286430,-0.342021465301514,48.64574691657
286540,-0.340985685586929,48.8019939194568
286650,-0.342021465301514,48.6978292508656
286760,-0.339742720127106,49.1144954180134
286870,-0.341399997472763,49.2186600866046
286980,-0.341192841529846,49.426989423787
287080,-0.341814309358597,49.6353262537524
287190,-0.342021465301514,49.3749145822744
287300,-0.341814309358597,49.6353337465353
287410,-0.342228621244431,49.4270044093529
287520,-0.342228621244431,49.1665927378749
287630,-0.341399997472763,49.1145104035793
287740,-0.341399997472763,49.4790942364315
287850,-0.34160715341568,49.5832589050227
287960,-0.341814309358597,49.5832589050227
288070,-0.342021465301514,49.3228472335447
288180,-0.342850118875504,49.0103457349881
288290,-0.34243580698967,48.5936720750573
288400,-0.341814309358597,48.6457544093529
288500,-0.341192841529846,48.8540837465353
288610,-0.34160715341568,49.2707499136831
288720,-0.342021465301514,49.6874160808309
288830,-0.34160715341568,49.7915807494222
288940,-0.34243580698967,49.6353262537524
289050,-0.341399997472763,49.4790717580826
289160,-0.342228621244431,49.426989423787
289270,-0.342642962932587,49.3749070894914
289380,-0.342228621244431,49.3228247551958
289490,-0.340985685586929,49.5832364266738
289600,-0.341192841529846,49.687401095265
289710,-0.34243580698967,49.687401095265
289810,-0.341192841529846,50.0519849281172
289920,-0.341814309358597,50.0519849281172
290030,-0.340985685586929,50.1040672624128
290140,-0.340364187955856,50.729070259526
290250,-0.342850118875504,50.468651095265
290360,-0.341192841529846,50.9373995967085
290470,-0.342021465301514,50.8853172624128
290580,-0.341192841529846,50.7290627667431
290690,-0.341814309358597,50.4686436024821
290800,-0.34160715341568,50.3123965995953
290910,-0.341399997472763,50.2603142652997
291020,-0.341814309358597,50.2082319310041
291130,-0.341814309358597,50.2603142652997
291230,-0.341814309358597,50.4165687609694
291340,-0.341399997472763,50.468651095265
291450,-0.341399997472763,50.3123965995953
291560,-0.342021465301514,50.2603142652997
291670,-0.341814309358597,49.8957304324475
291780,-0.342228621244431,49.7394834295607
291890,-0.341814309358597,49.7915657638563
292000,-0.341814309358597,49.7915657638563
292110,-0.340985685586929,50.0519774353343
292220,-0.34243580698967,50.1040597696299
292330,-0.341399997472763,50.2082244382211
292440,-0.340364187955856,50.4165612681865
292540,-0.341399997472763,50.4165612681865
292650,-0.342021465301514,50.2603142652997
292760,-0.341399997472763,50.4686436024821
292870,-0.341814309358597,50.5207259367777
292980,-0.34243580698967,50.6769729396645
293090,-0.341399997472763,50.6769729396645
293200,-0.342642962932587,50.4686361096991
293310,-0.341814309358597,50.2603067725167
293420,-0.34305727481842,50.2082244382211
293530,-0.340571343898773,50.3644789338909
293640,-0.34077849984169,50.6248980981519
293750,-0.34243580698967,50.4686436024821
293860,-0.341192841529846,50.4165612681865
293960,-0.341814309358597,50.4165612681865
294070,-0.342021465301514,50.1561495967085
294180,-0.342642962932587,49.8436480981519
294290,-0.34160715341568,50.0519849281172
294400,-0.341399997472763,50.0519849281172
294510,-0.341814309358597,49.8436555909348
294620,-0.34305727481842,49.687408588048
294730,-0.340985685586929,49.8436555909348
294840,-0.342021465301514,49.9999100866046
294950,-0.343471586704254,49.5311615851612
295060,-0.342228621244431,49.5832514122397
295170,-0.342021465301514,49.4790867436485
295270,-0.342642962932587,49.2707499136831
295380,-0.34160715341568,49.1665852450919
295490,-0.34243580698967,48.8540837465353
295600,-0.342228621244431,48.4894999136831
295710,-0.341814309358597,48.5415822479787
295820,-0.34160715341568,48.7499190779441
295930,-0.341192841529846,48.8020014122397
296040,-0.342228621244431,48.5936720750573
296150,-0.340985685586929,48.9582559079095
296260,-0.342228621244431,48.7499265707271
296370,-0.34243580698967,48.7499265707271
296480,-0.342850118875504,48.3332604035793
296590,-0.34243580698967,48.1249235736139
296690,-0.341814309358597,48.1770059079095
296800,-0.342021465301514,48.1249235736139
296910,-0.342021465301514,48.2290957349881
297020,-0.340985685586929,48.3853427378749
297130,-0.341814309358597,48.3332604035793
297240,-0.342228621244431,48.3332604035793
297350,-0.342228621244431,48.0207663978056
297460,-0.342021465301514,47.8645193949188
297570,-0.34305727481842,47.3436885591798
297680,-0.34243580698967,47.2915987321012
297790,-0.34243580698967,47.1874265707271
297900,-0.34243580698967,46.9790897407617
298000,-0.34160715341568,46.7707529107963
298110,-0.340364187955856,47.1353367436485
298220,-0.342021465301514,47.2395089050227
298330,-0.34243580698967,46.7707529107963
298440,-0.34160715341568,46.6665882422051
298550,-0.342850118875504,46.3020044093529
298660,-0.34160715341568,46.5624235736139
298770,-0.341192841529846,46.8228352450919
298880,-0.341814309358597,46.5624160808309
298990,-0.341814309358597,46.5103337465353
299100,-0.341192841529846,46.5103337465353
299210,-0.342642962932587,46.3540792508656
299320,-0.34243580698967,46.0936600866046
299420,-0.341192841529846,46.301989423787
299530,-0.34243580698967,46.301989423787
299640,-0.341192841529846,46.4061540923782
299750,-0.342021465301514,46.4061540923782
299860,-0.342021465301514,46.0936525938216
299970,-0.341814309358597,46.1978172624128
300080,-0.341814309358597,46.0936525938216
300190,-0.342021465301514,45.8853232566392
300300,-0.342021465301514,46.041577752309
300410,-0.34160715341568,46.1457424209002
300520,-0.341399997472763,46.041577752309
300630,-0.341814309358597,46.0936600866046
300730,-0.34160715341568,45.6249115851612
300840,-0.341814309358597,45.52074691657
300950,-0.342642962932587,45.1561630837178
301060,-0.341814309358597,45.1561630837178
301170,-0.34077849984169,45.4686645822744
301280,-0.341399997472763,45.5728292508656
301390,-0.342642962932587,45.4686570894914
301500,-0.341814309358597,45.5728217580826
301610,-0.343678742647171,44.999908588048
301720,-0.342642962932587,44.6874070894914
301830,-0.34160715341568,44.6874070894914
301940,-0.341192841529846,44.8436540923782
302050,-0.341814309358597,44.8957364266738
302150,-0.342021465301514,45.1040732566392
302260,-0.342228621244431,45.1561630837178
302370,-0.341814309358597,45.1561630837178
302480,-0.342642962932587,44.7915792508656
302590,-0.342021465301514,44.6874145822744
302700,-0.342850118875504,44.479077752309
302810,-0.34243580698967,44.2707409223436
302920,-0.342021465301514,44.3749130837178
303030,-0.34160715341568,44.3228307494222
303140,-0.342021465301514,44.3749130837178
303250,-0.341814309358597,44.5832499136831
303360,-0.342228621244431,44.5832499136831
303460,-0.34160715341568,44.4270029107963
303570,-0.34160715341568,44.3228382422051
303680,-0.341814309358597,44.4790927378749
303790,-0.342642962932587,44.1145089050227
303900,-0.34243580698967,43.9582544093529
304010,-0.342228621244431,43.6457604035793
304120,-0.341192841529846,43.4374235736139
304230,-0.34077849984169,43.9582619021359
304340,-0.341814309358597,43.802014899249
304450,-0.341399997472763,43.9582619021359
304560,-0.34243580698967,43.6457604035793
304670,-0.342228621244431,43.5415957349881
304780,-0.342228621244431,43.3853487321012
304880,-0.341814309358597,43.28118406351
304990,-0.342021465301514,43.2291017292144
305100,-0.343678742647171,42.760353227771
305210,-0.342228621244431,42.6561885591798
305320,-0.34160715341568,42.6041062248842
305430,-0.341192841529846,42.6561885591798
305540,-0.340985685586929,42.9166002306578
305650,-0.34243580698967,42.7603457349881
305760,-0.343471586704254,42.4478442364315
305870,-0.34388592839241,41.9270059079095
305980,-0.342021465301514,41.8749235736139
306090,-0.34305727481842,41.3540927378749
306190,-0.34160715341568,41.5624295678403
306300,-0.341192841529846,41.6145119021359
306410,-0.34243580698967,41.0936735736139
306520,-0.340571343898773,41.3020104035793
306630,-0.34243580698967,41.1978382422051
306740,-0.341399997472763,41.1978382422051
306850,-0.342228621244431,41.0936735736139
306960,-0.341399997472763,41.3540927378749
307070,-0.34243580698967,41.0936735736139
307180,-0.342021465301514,41.2499280692837
307290,-0.34160715341568,41.3020104035793
307400,-0.34243580698967,41.4582574064661
307510,-0.342228621244431,41.0415912393183
307610,-0.343678742647171,40.3124235736139
307720,-0.342228621244431,40.3645134006925
307830,-0.341814309358597,40.2082663978056
307940,-0.342228621244431,40.1041017292144
308050,-0.341399997472763,40.2603487321012
308160,-0.341399997472763,40.5728502306578
308270,-0.341399997472763,40.6249325649534
308380,-0.342021465301514,40.4686855620666
308490,-0.34243580698967,40.3124310663968
308600,-0.342228621244431,40.5207678963622
308710,-0.342021465301514,40.2603562248842
308820,-0.341399997472763,40.416603227771
308920,-0.34077849984169,41.0936885591798
309030,-0.34160715341568,41.2499355620666
309140,-0.341399997472763,41.4061825649534
309250,-0.342228621244431,41.5103547263276
309360,-0.342021465301514,41.4061900577364
309470,-0.341399997472763,41.6666092219974
309580,-0.34243580698967,41.6145193949188
309690,-0.340364187955856,41.979103227771
309800,-0.342021465301514,41.8749385591798
309910,-0.34243580698967,41.5624370606232
310020,-0.34160715341568,41.71868406351
310130,-0.34243580698967,41.3541002306578
310240,-0.342021465301514,41.4061825649534
310340,-0.342850118875504,41.3020178963622
310450,-0.341814309358597,41.5624370606232
310560,-0.342021465301514,41.6666092219974
310670,-0.342228621244431,41.5624445534062
310780,-0.342642962932587,41.4061900577364
310890,-0.341814309358597,41.458272392032
311000,-0.341399997472763,41.3541077234408
311110,-0.341399997472763,41.458272392032
311220,-0.342642962932587,41.3541002306578
311330,-0.34243580698967,41.3020104035793
311440,-0.34305727481842,41.0415912393183
311550,-0.343678742647171,40.8853442364315
311650,-0.342228621244431,40.93743406351
311760,-0.34077849984169,41.3541077234408
311870,-0.341399997472763,41.6145268877018
311980,-0.341814309358597,41.5624445534062
312090,-0.34243580698967,41.0416062248842
312200,-0.341814309358597,41.0936885591798
312310,-0.34305727481842,40.937441556293
312420,-0.342642962932587,40.677022392032
312530,-0.34077849984169,41.197860720554
312640,-0.342642962932587,40.937441556293
312750,-0.341399997472763,40.8853592219974
312860,-0.34243580698967,40.7291047263276
312970,-0.34243580698967,40.5728502306578
313070,-0.343471586704254,39.9999370606232
313180,-0.34243580698967,40.0520193949188
313290,-0.34160715341568,40.2603562248842
313400,-0.342850118875504,39.8436900577364
313510,-0.34077849984169,40.2603637176671
313620,-0.342021465301514,40.0520343804847
313730,-0.341192841529846,40.2603637176671
313840,-0.342021465301514,40.2603637176671
313950,-0.34243580698967,40.1041092219974
314060,-0.34243580698967,39.9478547263276
314170,-0.34160715341568,40.0520193949188
314280,-0.341399997472763,40.2082663978056
314380,-0.340364187955856,40.5207678963622
314490,-0.340571343898773,40.7291047263276
314600,-0.340571343898773,41.0416062248842
314710,-0.34160715341568,41.0416062248842
314820,-0.342021465301514,40.9895238905886
314930,-0.341192841529846,41.3541077234408
315040,-0.34243580698967,41.197853227771
315150,-0.342228621244431,40.8332693949188
315260,-0.34243580698967,40.5728502306578
315370,-0.341399997472763,40.8853517292144
315480,-0.34160715341568,40.93743406351
315590,-0.342642962932587,41.1978457349881
315700,-0.341399997472763,41.5103472335447
315800,-0.342642962932587,41.2499280692837
315910,-0.341192841529846,41.2499280692837
316020,-0.341399997472763,41.3540927378749
316130,-0.34160715341568,41.4582574064661
316240,-0.340985685586929,41.7707514122397
316350,-0.342228621244431,41.6665867436485
316460,-0.34160715341568,41.9270059079095
316570,-0.341814309358597,41.9790882422051
316680,-0.342228621244431,42.1353427378749
316790,-0.34243580698967,42.1353427378749
316900,-0.342228621244431,42.0832604035793
317010,-0.341814309358597,42.0311780692837
317110,-0.341192841529846,42.2395074064661
317220,-0.34305727481842,41.9270059079095
317330,-0.342228621244431,41.9270059079095
317440,-0.342642962932587,41.6665867436485
317550,-0.34243580698967,41.4582499136831
317660,-0.34160715341568,41.5103322479787
317770,-0.342642962932587,41.5103322479787
317880,-0.341192841529846,41.8228337465353
317990,-0.341399997472763,42.0311630837178
318100,-0.34160715341568,41.9269984151265
318210,-0.34160715341568,41.7186615851612
318320,-0.34077849984169,41.9790807494222
318430,-0.342021465301514,41.8228337465353
318530,-0.342228621244431,41.8749235736139
318640,-0.34160715341568,42.0311705765007
318750,-0.34243580698967,41.9790807494222
318860,-0.341814309358597,41.9790807494222
318970,-0.342021465301514,41.9790807494222
319080,-0.341814309358597,42.4478292508656
319190,-0.342021465301514,42.4999115851612
319300,-0.342642962932587,42.2394924209002
319410,-0.34243580698967,41.9269909223436
319520,-0.34243580698967,41.5624070894914
319630,-0.340571343898773,42.0311630837178
319740,-0.342228621244431,42.3436645822744
319840,-0.341192841529846,43.0207499136831
319950,-0.342642962932587,42.8644954180134
320060,-0.34160715341568,43.2290792508656
320170,-0.34160715341568,43.2290792508656
320280,-0.342642962932587,42.8644954180134
320390,-0.342228621244431,42.9165852450919
320500,-0.341814309358597,42.6040837465353
320610,-0.34305727481842,42.4478367436485
320720,-0.340985685586929,42.5520014122397
320830,-0.341814309358597,42.6561660808309
320940,-0.343471586704254,42.1353352450919
321050,-0.340571343898773,42.6040912393183
321160,-0.342228621244431,42.5520089050227
321260,-0.34160715341568,42.5520089050227
321370,-0.342228621244431,42.6040987321012
321480,-0.341399997472763,42.8124280692837
321590,-0.341399997472763,43.3853412393183
321700,-0.342228621244431,43.3853412393183
321810,-0.34243580698967,43.2290867436485
321920,-0.342228621244431,43.2290867436485
322030,-0.342021465301514,43.0728397407617
322140,-0.34160715341568,43.0207574064661
322250,-0.34243580698967,42.7603382422051
322360,-0.341399997472763,42.9165852450919
322470,-0.341399997472763,43.1770044093529
322570,-0.34243580698967,43.1249145822744
322680,-0.341399997472763,43.2811615851612
322790,-0.342642962932587,42.9686600866046
322900,-0.34160715341568,42.7603232566392
323010,-0.341192841529846,42.8644879252304
323120,-0.341192841529846,42.916570259526
323230,-0.342228621244431,42.916570259526
323340,-0.341399997472763,43.0728172624128
323450,-0.34160715341568,43.0207349281172
323560,-0.342228621244431,43.0728247551958
323670,-0.342228621244431,42.6040762537524
323780,-0.340985685586929,42.8644879252304
323890,-0.341399997472763,43.1249070894914
323990,-0.342021465301514,43.0207424209002
324100,-0.341399997472763,43.2811615851612
324210,-0.340985685586929,43.5415732566392
324320,-0.340985685586929,44.0103217580826
324430,-0.341399997472763,44.1144864266738
324540,-0.341399997472763,44.2707334295607
324650,-0.34243580698967,44.2186436024821
324760,-0.34243580698967,44.2707259367777
324870,-0.34305727481842,43.9582244382211
324980,-0.340571343898773,44.1665612681865
325090,-0.342021465301514,44.0103142652997
325200,-0.34160715341568,44.2707334295607
325300,-0.341399997472763,44.5311525938216
325410,-0.342021465301514,44.7915717580826
325520,-0.34160715341568,45.3124025938216
325630,-0.341814309358597,45.4165672624128
325740,-0.343264430761337,44.7915642652997
325850,-0.342228621244431,44.5832349281172
325960,-0.34243580698967,44.4269804324475
326070,-0.341192841529846,44.7394819310041
326180,-0.34160715341568,44.7915642652997
326290,-0.342228621244431,44.999901095265
326400,-0.343678742647171,44.739489423787
326510,-0.34077849984169,44.739489423787
326620,-0.342642962932587,44.739489423787
326720,-0.342228621244431,44.5311600866046
326830,-0.342021465301514,44.6353322479787
326940,-0.341399997472763,44.8957514122397
327050,-0.341399997472763,45.4165822479787
327160,-0.34160715341568,45.6249190779441
327270,-0.342642962932587,45.3644999136831
327380,-0.34077849984169,45.8853382422051
327490,-0.341399997472763,45.7290837465353
327600,-0.340571343898773,46.0936675793875
327710,-0.343264430761337,45.5728367436485
327820,-0.341399997472763,45.7290837465353
327930,-0.342021465301514,45.8332559079095
328030,-0.342850118875504,45.7290912393183
328140,-0.34243580698967,45.5207544093529
328250,-0.342228621244431,45.3124250721705
328360,-0.342228621244431,44.8436765707271
328470,-0.341399997472763,44.6353397407617
328580,-0.342021465301514,44.2707559079095
328690,-0.340985685586929,44.4270029107963
328800,-0.34243580698967,44.3228307494222
328910,-0.343471586704254,43.7499175793875
329020,-0.34077849984169,44.1665912393183
329130,-0.342642962932587,44.0624190779441
329240,-0.34243580698967,44.0624190779441
329350,-0.342021465301514,43.9061720750573
329450,-0.34160715341568,43.9061720750573
329560,-0.341399997472763,44.2186735736139
329670,-0.342021465301514,44.0624265707271
329780,-0.342228621244431,44.1665987321012
329890,-0.34243580698967,43.8540972335447
330000,-0.341814309358597,43.7499325649534
330110,-0.34160715341568,43.7499325649534
330220,-0.34160715341568,43.5936855620666
330330,-0.341399997472763,43.802014899249
330440,-0.342228621244431,43.6457678963622
330550,-0.340985685586929,43.8540972335447
330660,-0.341814309358597,43.9582619021359
330760,-0.34077849984169,44.3749355620666
330870,-0.342228621244431,44.3749355620666
330980,-0.34160715341568,44.4270178963622
331090,-0.342021465301514,44.2186885591798
331200,-0.340985685586929,44.7395193949188
331310,-0.342850118875504,44.583264899249
331420,-0.341192841529846,44.9478487321012
331530,-0.341814309358597,45.104103227771
331640,-0.341814309358597,45.0520208934754
331750,-0.341814309358597,45.2603577234408
331860,-0.343471586704254,44.6874445534062
331970,-0.342642962932587,44.3749430548496
332080,-0.34243580698967,44.1666062248842
332180,-0.34160715341568,44.1666062248842
332290,-0.341192841529846,44.06243406351
332400,-0.34160715341568,44.1665987321012
332510,-0.341814309358597,44.2707634006925
332620,-0.342021465301514,44.1665987321012
332730,-0.341399997472763,44.4270178963622
332840,-0.34160715341568,44.4791002306578
332950,-0.342021465301514,44.4791002306578
333060,-0.342228621244431,44.3749355620666
333170,-0.34243580698967,44.2707634006925
333280,-0.342021465301514,44.4270178963622
333390,-0.342642962932587,44.3749355620666
333490,-0.34160715341568,44.583272392032
333600,-0.342228621244431,44.1666062248842
333710,-0.341814309358597,44.2707708934754
333820,-0.341399997472763,44.2186885591798
333930,-0.341192841529846,44.583272392032
334040,-0.34160715341568,44.583272392032
334150,-0.340985685586929,44.7395193949188
334260,-0.34243580698967,44.7916017292144
334370,-0.342642962932587,44.6874295678403
334480,-0.34243580698967,44.5311750721705
334590,-0.341814309358597,44.8436765707271
334700,-0.341814309358597,44.6353472335447
334810,-0.341399997472763,44.7395119021359
334910,-0.341814309358597,45.1561780692837
335020,-0.342642962932587,44.6353397407617
335130,-0.341814309358597,44.7395044093529
335240,-0.341192841529846,44.8436690779441
335350,-0.341814309358597,44.9478337465353
335460,-0.342228621244431,44.7395044093529
335570,-0.343264430761337,44.2707559079095
335680,-0.342228621244431,44.2707559079095
335790,-0.342228621244431,44.3228457349881
335900,-0.34160715341568,44.4790927378749
336010,-0.342021465301514,44.4790927378749
336120,-0.34243580698967,44.2707559079095
336220,-0.340364187955856,44.7915942364315
336330,-0.342850118875504,44.4270104035793
336440,-0.34243580698967,44.1665912393183
336550,-0.342021465301514,44.2707634006925
336660,-0.341814309358597,44.1665987321012
336770,-0.34305727481842,44.06243406351
336880,-0.342850118875504,43.7499325649534
336990,-0.341399997472763,43.6978502306578
337100,-0.340364187955856,43.9061870606232
337210,-0.341814309358597,44.0103517292144
337320,-0.342021465301514,43.8541047263276
337430,-0.341399997472763,43.9061870606232
337540,-0.341192841529846,44.1665987321012
337640,-0.342021465301514,44.2186810663968
337750,-0.342228621244431,43.9061870606232
337860,-0.341399997472763,43.9061870606232
337970,-0.342021465301514,43.9061870606232
338080,-0.341399997472763,43.9061870606232
338190,-0.342228621244431,43.5936930548496
338300,-0.34243580698967,43.2291092219974
338410,-0.34160715341568,43.1770268877018
338520,-0.34160715341568,43.1249445534062
338630,-0.34243580698967,43.1249445534062
338740,-0.341192841529846,43.4374460519627
338850,-0.34160715341568,43.8020298848149
338950,-0.340985685586929,43.6978577234408
339060,-0.341814309358597,43.7499400577364
339170,-0.341814309358597,43.6978577234408
339280,-0.342021465301514,43.541610720554
339390,-0.342228621244431,43.4895283862584
339500,-0.341814309358597,43.4374460519627
339610,-0.34243580698967,43.281191556293
339720,-0.341399997472763,43.7499400577364
339830,-0.342021465301514,43.802022392032
339940,-0.342228621244431,43.8541122191106
340050,-0.34243580698967,43.541610720554
340160,-0.341814309358597,43.4895283862584
340270,-0.34160715341568,43.6457753891452
340370,-0.342021465301514,44.062441556293
340480,-0.343264430761337,43.4374385591798
340590,-0.342228621244431,43.541610720554
340700,-0.34305727481842,43.3332738905886
340810,-0.34243580698967,43.2291017292144
340920,-0.341814309358597,43.1249370606232
341030,-0.341399997472763,43.1249370606232
341140,-0.34077849984169,43.3332738905886
341250,-0.340157032012939,43.9582768877018
341360,-0.342021465301514,43.6457753891452
341470,-0.341814309358597,43.541610720554
341580,-0.341814309358597,43.2291092219974
341680,-0.342228621244431,43.4895283862584
341790,-0.342850118875504,43.1249445534062
341900,-0.341399997472763,43.281191556293
342010,-0.341814309358597,43.541610720554
342120,-0.34160715341568,43.7499475505193
342230,-0.341192841529846,44.0103592219974
342340,-0.342021465301514,44.062441556293
342450,-0.342021465301514,43.9061945534062
342560,-0.342850118875504,43.6978577234408
342670,-0.341814309358597,43.4895283862584
342780,-0.34160715341568,43.6978652162237
342890,-0.342850118875504,43.8541122191106
343000,-0.341814309358597,43.5936930548496
343100,-0.341399997472763,43.9061945534062
343210,-0.340571343898773,44.3749505476325
343320,-0.341814309358597,44.4270328819281
343430,-0.34160715341568,44.4270328819281
343540,-0.341814309358597,44.3228682133369
343650,-0.342228621244431,44.2707858790413
343760,-0.341192841529846,44.5311975505193
343870,-0.342021465301514,44.6353697118935
343980,-0.342642962932587,44.4270328819281
344090,-0.34160715341568,44.4270328819281
344200,-0.342021465301514,44.3228682133369
344310,-0.34243580698967,44.0624490490759
344410,-0.341399997472763,44.2707783862584
344520,-0.34243580698967,43.9061945534062
344630,-0.342850118875504,43.6457753891452
344740,-0.341814309358597,43.3853562248842
344850,-0.342228621244431,43.3853562248842
344960,-0.341192841529846,43.4895208934754
345070,-0.341192841529846,43.6978502306578
345180,-0.340985685586929,43.6978502306578
345290,-0.342021465301514,43.9061870606232
345400,-0.341814309358597,43.7499400577364
345510,-0.342228621244431,43.6457753891452
345620,-0.342850118875504,43.3853562248842
345730,-0.343264430761337,43.020772392032
345830,-0.34160715341568,43.4895208934754
345940,-0.341192841529846,43.8541047263276
346050,-0.342021465301514,43.9582768877018
346160,-0.341399997472763,44.0103592219974
346270,-0.34160715341568,43.9061945534062
346380,-0.341192841529846,44.0103592219974
346490,-0.341814309358597,44.0103592219974
346600,-0.342021465301514,44.0103592219974
346710,-0.342021465301514,43.8541122191106
346820,-0.34160715341568,43.8541122191106
346930,-0.342642962932587,43.6978577234408
347040,-0.341399997472763,43.9061870606232
347140,-0.342021465301514,44.0103592219974
347250,-0.342850118875504,43.802022392032
347360,-0.341814309358597,44.0103592219974
347470,-0.34160715341568,44.0103592219974
347580,-0.342021465301514,44.062441556293
347690,-0.342850118875504,43.802022392032
347800,-0.342228621244431,43.5936930548496
347910,-0.341192841529846,43.5936930548496
348020,-0.34160715341568,43.5936930548496
348130,-0.340571343898773,43.6978652162237
348240,-0.341814309358597,43.8541197118935
348350,-0.341192841529846,44.2187035447457
348460,-0.34243580698967,44.2187035447457
348560,-0.341399997472763,44.3228682133369
348670,-0.34160715341568,44.3749505476325
348780,-0.34305727481842,43.9582843804847
348890,-0.34243580698967,43.8020298848149
349000,-0.341399997472763,44.1145313833715
349110,-0.341192841529846,44.2707783862584
349220,-0.341814309358597,44.1145313833715
349330,-0.342228621244431,44.0103667147803
349440,-0.340157032012939,44.5311975505193
349550,-0.340985685586929,45.104110720554
349660,-0.340985685586929,45.4166047263276
349770,-0.34160715341568,45.5728517292144
349870,-0.341814309358597,45.5207693949188
349980,-0.341399997472763,45.6770163978056
350090,-0.341399997472763,45.9374355620666
350200,-0.341399997472763,45.6770163978056
350310,-0.341399997472763,46.0416002306578
350420,-0.34305727481842,45.885353227771
350530,-0.342228621244431,45.8332708934754
350640,-0.34077849984169,46.0936900577364
350750,-0.342021465301514,46.3541092219974
350860,-0.341192841529846,46.7707753891452
350970,-0.34243580698967,46.5103562248842
351080,-0.34243580698967,45.9895178963622
351190,-0.342642962932587,45.7811810663968
351290,-0.342021465301514,45.7811810663968
351400,-0.34305727481842,45.364514899249
351510,-0.342228621244431,45.104103227771
351620,-0.34305727481842,44.84368406351
351730,-0.342642962932587,44.7395119021359
351840,-0.342021465301514,44.583264899249
351950,-0.341192841529846,44.7915942364315
352060,-0.340985685586929,44.8957589050227
352170,-0.341192841529846,45.1561705765007
352280,-0.341192841529846,45.4686720750573
352390,-0.34243580698967,45.2603352450919
352500,-0.341814309358597,45.2082529107963
352600,-0.34160715341568,45.4165897407617
352710,-0.34243580698967,45.1040882422051
352820,-0.341399997472763,45.1561705765007
352930,-0.342228621244431,44.8436765707271
353040,-0.341192841529846,44.9999235736139
353150,-0.34160715341568,45.0520059079095
353260,-0.342228621244431,44.9999235736139
353370,-0.34305727481842,44.7915867436485
353480,-0.341192841529846,44.9478337465353
353590,-0.341399997472763,45.2082529107963
353700,-0.341814309358597,45.1040882422051
353810,-0.340571343898773,45.4686720750573
353920,-0.34243580698967,45.4165822479787
354020,-0.342228621244431,45.4686720750573
354130,-0.341814309358597,45.4686720750573
354240,-0.343264430761337,45.0520059079095
354350,-0.342642962932587,44.8957514122397
354460,-0.341814309358597,45.2603352450919
354570,-0.34243580698967,45.2082454180134
354680,-0.34160715341568,45.5728292508656
354790,-0.341814309358597,45.7290837465353
354900,-0.34305727481842,45.4165822479787
355010,-0.342228621244431,45.2082529107963
355120,-0.342850118875504,44.6874145822744
355230,-0.341399997472763,44.3749130837178
355330,-0.341399997472763,44.5311600866046
355440,-0.342021465301514,44.479077752309
355550,-0.340985685586929,44.6874070894914
355660,-0.342228621244431,44.6874070894914
355770,-0.34243580698967,44.7915717580826
355880,-0.341192841529846,44.8436540923782
355990,-0.342850118875504,44.5832349281172
356100,-0.340571343898773,44.8436540923782
356210,-0.342021465301514,44.6353247551958
356320,-0.342021465301514,44.6353247551958
356430,-0.34160715341568,44.739489423787
356540,-0.34160715341568,45.0519909223436
356650,-0.340985685586929,45.260320259526
356750,-0.342228621244431,45.1040732566392
356860,-0.34243580698967,45.2082379252304
356970,-0.342228621244431,45.1040732566392
357080,-0.341814309358597,44.999908588048
357190,-0.34160715341568,44.739489423787
357300,-0.34243580698967,44.5832349281172
357410,-0.342228621244431,44.4269879252304
357520,-0.341814309358597,44.4269879252304
357630,-0.342228621244431,44.4269879252304
357740,-0.341814309358597,44.2707409223436
357850,-0.341814309358597,44.3228232566392
357960,-0.341192841529846,44.6874070894914
358060,-0.34243580698967,44.479070259526
358170,-0.342850118875504,44.2707334295607
358280,-0.341814309358597,44.4269879252304
358390,-0.341814309358597,44.3228232566392
358500,-0.342642962932587,44.2707409223436
358610,-0.34305727481842,44.218658588048
358720,-0.342021465301514,44.1665762537524
358830,-0.341814309358597,44.2707409223436
358940,-0.341814309358597,44.1144939194568
359050,-0.341814309358597,43.95824691657
359160,-0.341399997472763,43.8540822479787
359270,-0.341814309358597,43.9061645822744
359380,-0.341192841529846,44.0624115851612
359480,-0.342850118875504,43.9061570894914
359590,-0.342021465301514,44.1144939194568
359700,-0.341399997472763,44.5832424209002
359810,-0.340985685586929,44.739489423787
359920,-0.34243580698967,44.4269879252304
360030,-0.34077849984169,44.739489423787
360140,-0.342642962932587,44.4269879252304
360250,-0.342642962932587,44.1665687609694
360360,-0.34243580698967,43.8540672624128
360470,-0.34243580698967,43.6978127667431
360580,-0.341814309358597,43.7498951010387
360690,-0.34160715341568,43.8540597696299
360800,-0.34160715341568,43.8540597696299
360900,-0.343471586704254,43.6457304324475
361010,-0.34243580698967,43.3853112681865
361120,-0.34305727481842,43.1248921039255
361230,-0.341814309358597,43.3853112681865
361340,-0.340985685586929,43.5936406053689
361450,-0.341814309358597,43.5415582710733
361560,-0.341399997472763,43.6978052739601
361670,-0.342228621244431,43.8540597696299
361780,-0.34160715341568,44.0103067725167
361890,-0.342642962932587,43.6457229396645
362000,-0.342642962932587,43.3853037754035
362110,-0.341399997472763,43.1769669454382
362210,-0.341814309358597,43.1769669454382
362320,-0.341399997472763,43.1248846111425
362430,-0.343471586704254,42.8644729396645
362540,-0.34160715341568,42.8123906053689
362650,-0.340985685586929,42.9686376082557
362760,-0.341814309358597,43.2811391068123
362870,-0.341399997472763,43.5415582710733
362980,-0.342642962932587,43.2290567725167
363090,-0.342228621244431,42.9686451010387
363200,-0.34160715341568,43.0207274353343
363310,-0.34160715341568,43.1769744382211
363420,-0.342228621244431,42.6561436024821
363530,-0.34243580698967,42.2915597696299
363630,-0.342021465301514,42.0311480981519
363740,-0.34243580698967,41.8228112681865
363850,-0.342021465301514,41.7707289338909
363960,-0.34160715341568,41.7186465995953
364070,-0.34243580698967,41.4582274353343
364180,-0.341399997472763,41.4582274353343
364290,-0.34243580698967,41.1978082710733
364400,-0.34160715341568,41.5623921039255
364510,-0.342021465301514,41.6144744382211
364620,-0.341814309358597,41.3540552739601
364730,-0.341399997472763,41.5103022768469
364840,-0.342021465301514,41.3019729396645
364940,-0.34305727481842,41.1457259367777
365050,-0.342642962932587,41.0936436024821
365160,-0.342642962932587,41.0936436024821
365270,-0.342021465301514,41.0936436024821
365380,-0.342021465301514,41.3540627667431
365490,-0.34160715341568,41.5103097696299
365600,-0.34160715341568,41.8748936024821
365710,-0.341192841529846,42.2394774353343
365820,-0.340985685586929,42.4998891068123
365930,-0.34243580698967,42.1873876082557
366040,-0.343678742647171,41.5103097696299
366150,-0.342642962932587,41.1457259367777
366260,-0.340985685586929,41.1978082710733
366360,-0.342021465301514,41.3019804324475
366470,-0.34160715341568,41.3540627667431
366580,-0.341814309358597,41.3019804324475
366690,-0.342642962932587,41.2498980981519
366800,-0.34160715341568,41.1978157638563
366910,-0.342850118875504,41.0415612681865
367020,-0.342642962932587,40.6769774353343
367130,-0.34243580698967,40.4686406053689
367240,-0.341399997472763,40.6769699425513
367350,-0.341814309358597,40.9894714411079
367460,-0.341814309358597,40.8332244382211
367570,-0.342021465301514,40.6769774353343
367670,-0.340364187955856,41.0415612681865
367780,-0.342642962932587,40.5207229396645
367890,-0.342850118875504,40.4165582710733
368000,-0.34243580698967,40.3644684439947
368110,-0.342850118875504,40.1040492797338
368220,-0.341814309358597,40.468633112586
368330,-0.342642962932587,40.468633112586
368440,-0.342021465301514,40.4165507782904
368550,-0.34077849984169,40.8332244382211
368660,-0.34160715341568,40.8332244382211
368770,-0.342021465301514,40.7811421039255
368880,-0.34243580698967,40.9373891068123
368990,-0.340985685586929,41.249883112586
369090,-0.341399997472763,41.6144669454382
369200,-0.342228621244431,41.4061376082557
369310,-0.341192841529846,41.4582199425513
369420,-0.34243580698967,41.3540477811772
369530,-0.342228621244431,41.0415537754035
369640,-0.342021465301514,41.0936361096991
369750,-0.341399997472763,41.3540552739601
369860,-0.341192841529846,41.3540552739601
369970,-0.342021465301514,41.5623921039255
370080,-0.341814309358597,41.2498906053689
370190,-0.342228621244431,41.1978082710733
370300,-0.342021465301514,41.1978082710733
370400,-0.341192841529846,41.3019729396645
370510,-0.343471586704254,40.8332244382211
370620,-0.341814309358597,40.6248951010387
370730,-0.341192841529846,40.8853067725167
370840,-0.341814309358597,41.0415612681865
370950,-0.340985685586929,41.3540552739601
371060,-0.34077849984169,41.6144744382211
371170,-0.341399997472763,41.6665567725167
371280,-0.340571343898773,42.1353127667431
371390,-0.342021465301514,42.1873951010387
371500,-0.34160715341568,42.2394774353343
371610,-0.342021465301514,42.2915597696299
371720,-0.34160715341568,42.3436421039255
371820,-0.341814309358597,42.3436421039255
371930,-0.341399997472763,42.2915597696299
372040,-0.340985685586929,42.6561436024821
372150,-0.342642962932587,42.7082259367777
372260,-0.341192841529846,42.8644729396645
372370,-0.342021465301514,42.8123906053689
372480,-0.341814309358597,43.0207274353343
372590,-0.34305727481842,43.0207274353343
372700,-0.342642962932587,42.8644729396645
372810,-0.343264430761337,42.4998891068123
372920,-0.340985685586929,42.7082184439947
373030,-0.340985685586929,42.9165477811772
373130,-0.343471586704254,42.3957169454382
373240,-0.341814309358597,42.3957169454382
373350,-0.341192841529846,42.3957169454382
373460,-0.340571343898773,42.9686376082557
373570,-0.341814309358597,43.0207199425513
373680,-0.34243580698967,42.7603007782904
373790,-0.340985685586929,42.7603007782904
373900,-0.342021465301514,42.8644729396645
374010,-0.342850118875504,42.3436346111425
374120,-0.342228621244431,42.4478067725167
374230,-0.342228621244431,42.5519789338909
374340,-0.34077849984169,42.9686525938216
374450,-0.34305727481842,42.8124055909348
374550,-0.341814309358597,42.8124055909348
374660,-0.342642962932587,42.5519864266738
374770,-0.342228621244431,42.395739423787
374880,-0.34243580698967,42.656151095265
374990,-0.341192841529846,42.9686525938216
375100,-0.341399997472763,43.3853187609694
375210,-0.34243580698967,43.2290642652997
375320,-0.341399997472763,43.1248995967085
375430,-0.342021465301514,43.0728172624128
375540,-0.34243580698967,42.8123980981519
375650,-0.342642962932587,42.7082259367777
375760,-0.34243580698967,42.4998891068123
375860,-0.341814309358597,42.7082259367777
375970,-0.34160715341568,42.9686451010387
376080,-0.34077849984169,43.1248995967085
376190,-0.341399997472763,43.2290642652997
376300,-0.340364187955856,43.4894834295607
376410,-0.342021465301514,43.8540672624128
376520,-0.342228621244431,43.697820259526
376630,-0.343264430761337,43.1249070894914
376740,-0.34160715341568,43.176989423787
376850,-0.342228621244431,42.9686600866046
376960,-0.341192841529846,43.3332439194568
377070,-0.340571343898773,43.7499100866046
377180,-0.341814309358597,43.697827752309
377280,-0.342642962932587,43.437408588048
377390,-0.342228621244431,43.437408588048
377500,-0.342642962932587,43.3853262537524
377610,-0.342228621244431,43.3332439194568
377720,-0.34243580698967,43.3332439194568
377830,-0.342850118875504,43.1249070894914
377940,-0.34160715341568,43.1249070894914
378050,-0.342228621244431,43.17699691657
378160,-0.342228621244431,42.9686675793875
378270,-0.342228621244431,43.0207574064661
378380,-0.341814309358597,42.9686750721705
378490,-0.34243580698967,42.8645029107963
378590,-0.34305727481842,42.5520014122397
378700,-0.342228621244431,42.3436720750573
378810,-0.342642962932587,42.1874175793875
378920,-0.342642962932587,42.2915822479787
379030,-0.341399997472763,42.6040837465353
379140,-0.34160715341568,42.8645029107963
379250,-0.342021465301514,42.8645029107963
379360,-0.34160715341568,42.9686675793875
379470,-0.340364187955856,43.2811690779441
379580,-0.34243580698967,43.0728322479787
379690,-0.342228621244431,42.8124205765007
379800,-0.341399997472763,42.7082559079095
379910,-0.341399997472763,42.9686750721705
380010,-0.341399997472763,43.5415882422051
380120,-0.342850118875504,43.4895059079095
380230,-0.341814309358597,43.2811765707271
380340,-0.342021465301514,43.2811765707271
380450,-0.342228621244431,43.1249295678403
380560,-0.342850118875504,42.8645104035793
380670,-0.342021465301514,43.020764899249
380780,-0.342642962932587,42.7603457349881
380890,-0.34243580698967,42.8645104035793
381000,-0.342642962932587,42.8645104035793
381110,-0.341192841529846,43.1770119021359
381220,-0.341814309358597,43.0728472335447
381320,-0.342228621244431,42.9686825649534
381430,-0.342021465301514,42.9166002306578
381540,-0.342021465301514,42.9166002306578
381650,-0.341192841529846,42.7082634006925
381760,-0.34160715341568,42.9686825649534
381870,-0.341814309358597,43.2291017292144
381980,-0.342850118875504,43.1249370606232
382090,-0.342021465301514,43.3332738905886
382200,-0.342642962932587,43.1249370606232
382310,-0.342021465301514,43.281191556293
382420,-0.342228621244431,43.2291092219974
382530,-0.342850118875504,42.7082708934754
382640,-0.342021465301514,42.6041062248842
382740,-0.34077849984169,42.9166077234408
382850,-0.341399997472763,43.1770268877018
382960,-0.341814309358597,42.9686975505193
383070,-0.341814309358597,42.8645328819281
383180,-0.342228621244431,42.8645328819281
383290,-0.342642962932587,42.4999490490759
383400,-0.341192841529846,42.8124505476325
383510,-0.341399997472763,43.0207798848149
383620,-0.340985685586929,43.281191556293
383730,-0.340985685586929,43.3853562248842
383840,-0.341399997472763,43.3332738905886
383950,-0.342850118875504,43.1249370606232
384050,-0.34243580698967,42.9686825649534
384160,-0.341814309358597,43.0728472335447
384270,-0.342850118875504,42.8645104035793
384380,-0.342021465301514,42.6561810663968
384490,-0.342850118875504,42.8124280692837
384600,-0.341399997472763,42.9165927378749
384710,-0.339949876070023,43.2290942364315
384820,-0.340364187955856,43.5936780692837
384930,-0.341399997472763,43.4895134006925
385040,-0.342021465301514,43.1770119021359
385150,-0.342850118875504,42.8124280692837
385260,-0.342642962932587,42.2915897407617
385370,-0.342228621244431,42.2395074064661
385470,-0.34243580698967,42.0311705765007
385580,-0.34160715341568,42.1353352450919
385690,-0.342642962932587,41.8749160808309
385800,-0.34243580698967,41.7186615851612
385910,-0.34243580698967,41.4582424209002
386020,-0.340985685586929,41.4582424209002
386130,-0.341192841529846,41.8228262537524
386240,-0.341814309358597,41.6665792508656
386350,-0.341814309358597,41.7186615851612
386460,-0.340364187955856,42.0832454180134
386570,-0.341814309358597,42.39574691657
386680,-0.340985685586929,42.8124130837178
386780,-0.341814309358597,43.17699691657
386890,-0.342021465301514,42.9165852450919
387000,-0.342228621244431,42.6040912393183
387110,-0.341399997472763,43.1249220750573
387220,-0.342850118875504,42.8645029107963
387330,-0.342228621244431,42.6040912393183
387440,-0.342228621244431,42.1874250721705
387550,-0.341192841529846,42.3436720750573
387660,-0.34077849984169,42.7603457349881
387770,-0.34160715341568,42.6040987321012
387880,-0.340985685586929,42.8645104035793
387990,-0.341192841529846,43.2811765707271
388100,-0.342021465301514,43.3332589050227
388200,-0.34160715341568,43.4895059079095
388310,-0.341814309358597,43.2290867436485
388420,-0.34160715341568,43.5936705765007
388530,-0.341814309358597,43.5936705765007
388640,-0.34160715341568,43.8540897407617
388750,-0.34305727481842,43.6457529107963
388860,-0.341399997472763,43.9061720750573
388970,-0.34243580698967,43.5936705765007
389080,-0.340571343898773,43.8020074064661
389190,-0.342228621244431,43.8540972335447
389300,-0.341399997472763,43.8540972335447
389410,-0.34160715341568,43.9582619021359
389510,-0.342021465301514,44.06243406351
389620,-0.34160715341568,44.322853227771
389730,-0.34077849984169,44.7395268877018
389840,-0.342642962932587,44.5311900577364
389950,-0.342850118875504,44.2186885591798
390060,-0.34160715341568,44.0103517292144
390170,-0.341192841529846,44.06243406351
390280,-0.341399997472763,43.802014899249
390390,-0.342021465301514,43.802014899249
390500,-0.342228621244431,43.802014899249
