time,raw,transformed
6474,-0.339742720127106,0
6572,-0.339742720127106,0
6683,-0.339742720127106,0
6793,-0.339121222496033,0
6902,-0.340157032012939,0
7009,-0.340364187955856,0
7119,-0.339742720127106,90.4768755437762
7232,-0.339742720127106,91.6672661008008
7339,-0.339535564184189,72.2226218449791
7448,-0.339535564184189,75.0003596604792
7555,-0.339949876070023,72.7275996913453
7664,-0.34077849984169,75.0001998113796
7778,-0.339535564184189,76.9232613643504
7885,-0.340364187955856,73.809695076418
7994,-0.339742720127106,74.4446042935481
8101,-0.340571343898773,70.8334831918669
8210,-0.34160715341568,77.6473803976855
8327,-0.34077849984169,75.5559072185209
8431,-0.340571343898773,74.2108973286317
8540,-0.34160715341568,70.5003524622002
8647,-0.339949876070023,70.9527303318201
8756,-0.34077849984169,69.5458272791357
8870,-0.340571343898773,68.6960399761565
8977,-0.339535564184189,70.0003716438175
9086,-0.339949876070023,70.4003682870337
9193,-0.339949876070023,70.7695959576959
9307,-0.340364187955856,70.3707433462426
9414,-0.340985685586929,68.9289156700797
9527,-0.340157032012939,68.9658644947793
9630,-0.340364187955856,68.6670215265682
9739,-0.341399997472763,66.7745323204813
9853,-0.340157032012939,66.875341672541
9960,-0.340157032012939,66.9700413668987
10070,-0.340364187955856,66.7650570751818
10179,-0.341192841529846,65.4289043666261
10285,-0.341192841529846,64.1669823641034
10399,-0.340985685586929,63.2435387438188
10506,-0.341399997472763,61.8423892015578
10615,-0.341814309358597,63.6365709395439
10722,-0.340571343898773,63.4093078915022
10831,-0.340364187955856,63.414857435958
10945,-0.340157032012939,63.6365901020242
11052,-0.340985685586929,63.0023243039718
11161,-0.341399997472763,61.983671033265
11270,-0.340364187955856,62.0204081039518
11377,-0.339949876070023,62.4507996583704
11491,-0.340157032012939,62.6694556105456
11598,-0.340157032012939,62.8790008980488
11707,-0.339742720127106,63.4510459777531
11814,-0.342021465301514,65.1668205195828
11927,-0.338914066553116,53.0716484470395
12037,-0.339949876070023,53.3330849571849
12144,-0.340364187955856,53.3330884371427
12253,-0.342228621244431,55.2080565162983
12360,-0.340571343898773,55.1133645796385
12472,-0.33932837843895,55.6917013689968
12583,-0.341399997472763,55.153242580638
12690,-0.339535564184189,55.6031769851188
12799,-0.34077849984169,55.4022775852347
12906,-0.34077849984169,55.2080748320114
13015,-0.34077849984169,55.0202393821729
13129,-0.339742720127106,55.3424863345979
13236,-0.341814309358597,54.6624433009726
13345,-0.340571343898773,54.5895926243953
13452,-0.340985685586929,54.3266654401543
13561,-0.340364187955856,54.355805169972
13678,-0.340364187955856,54.3840750571093
13782,-0.340157032012939,54.5034235888609
13891,-0.341399997472763,54.0758312242746
13998,-0.339949876070023,54.2854573899902
14107,-0.34160715341568,53.7849532411783
14222,-0.341399997472763,53.3851559799475
14328,-0.339949876070023,53.5956286764462
14437,-0.341399997472763,53.2091951866631
14544,-0.340157032012939,53.3330695870567
14653,-0.341814309358597,52.7957893979671
14762,-0.339949876070023,53.0029825593486
14878,-0.339742720127106,53.2849898397741
14983,-0.340157032012939,53.4016326926409
15090,-0.339742720127106,53.6716066643895
15199,-0.339949876070023,53.8577555058701
15313,-0.340571343898773,53.8107097070181
15422,-0.341814309358597,53.3129876047198
15529,-0.339121222496033,53.7943819474235
15636,-0.341814309358597,53.308563044704
15745,-0.339742720127106,53.560783828282
15859,-0.340364187955856,53.5916930671311
15965,-0.340157032012939,53.6929212733715
16079,-0.34160715341568,53.3003003919225
16181,-0.340364187955856,53.3330735832125
16291,-0.339535564184189,53.639846819008
16405,-0.33932837843895,54.0078944055818
16511,-0.339742720127106,54.2336111370535
16622,-0.339121222496033,54.6539994482747
16727,-0.339949876070023,54.802374852235
16837,-0.33932837843895,55.1429774556871
16951,-0.340157032012939,55.2188207315689
17057,-0.34077849984169,55.1017930954508
17168,-0.340571343898773,55.0502598318601
17277,-0.340571343898773,54.9997572335421
17383,-0.340571343898773,54.9502546866748
17498,-0.342021465301514,54.4728001074733
17604,-0.340571343898773,54.4293748637117
17714,-0.341814309358597,54.0262056363322
17821,-0.339742720127106,54.2259517772481
17930,-0.339742720127106,54.4219291230513
18044,-0.340571343898773,54.3806026826487
18150,-0.338499754667282,54.9187431690715
18260,-0.340157032012939,54.9882939217973
18366,-0.34077849984169,54.8861286351615
18478,-0.341399997472763,54.6168801828864
18590,-0.340985685586929,54.4640448745445
18696,-0.341192841529846,54.2586058760151
18806,-0.341399997472763,54.0019474949302
18912,-0.339949876070023,54.1301884977954
19023,-0.34160715341568,53.8251839661287
19136,-0.339949876070023,53.9527436144887
19242,-0.339949876070023,54.0781412349111
19352,-0.34160715341568,53.7812632650747
19458,-0.340571343898773,53.7497527378665
19569,-0.342021465301514,53.3571918690261
19682,-0.339742720127106,53.5345882506931
19788,-0.341399997472763,53.3025960733098
19897,-0.340571343898773,53.2759622340077
20004,-0.33932837843895,53.5497563344066
20113,-0.339949876070023,53.6703905128975
20231,-0.339949876070023,53.7891249405467
20334,-0.340157032012939,53.8571768958262
20443,-0.339535564184189,53.9060041427647
20550,-0.342021465301514,53.3688974019493
20659,-0.342021465301514,52.831790661134
20774,-0.340157032012939,52.5876474019493
20880,-0.340985685586929,52.3923313897031
20989,-0.340364187955856,52.3923313897031
21096,-0.340364187955856,52.2458496488878
21205,-0.339949876070023,52.1970224019493
21320,-0.339949876070023,52.0993679080724
21429,-0.342228621244431,51.4646066733802
21535,-0.341192841529846,51.1716361672571
21642,-0.340364187955856,51.269290661134
21751,-0.340157032012939,51.1228089203187
21861,-0.341399997472763,50.878665661134
21974,-0.340157032012939,50.7810111672571
22081,-0.339742720127106,50.9763201550109
22188,-0.340571343898773,51.2204634141955
22297,-0.340571343898773,51.269290661134
22411,-0.339742720127106,51.4645996488878
22520,-0.340364187955856,51.7575701550109
22629,-0.339949876070023,51.7575701550109
22734,-0.342228621244431,51.4157724019493
22843,-0.339742720127106,51.6110813897031
22957,-0.34160715341568,51.1228018958262
23064,-0.33932837843895,51.269290661134
23174,-0.341192841529846,50.9763201550109
23280,-0.339535564184189,51.1716291427647
23389,-0.34077849984169,51.2204634141955
23503,-0.340985685586929,51.0251474019493
23610,-0.341192841529846,50.8298313897031
23719,-0.341192841529846,50.8786586366415
23828,-0.340157032012939,50.8786586366415
23935,-0.340571343898773,50.7810041427647
24049,-0.340571343898773,50.7321768958262
24156,-0.34077849984169,50.8298384141955
24265,-0.341399997472763,50.7810111672571
24372,-0.340571343898773,50.8786726856264
24481,-0.340364187955856,51.1228159448111
24595,-0.340364187955856,51.4646136978727
24702,-0.342021465301514,51.1228159448111
24811,-0.341192841529846,50.9274999325649
24920,-0.339535564184189,51.0739816733802
25028,-0.340364187955856,51.220470438688
25141,-0.340985685586929,51.3181249325649
25248,-0.341399997472763,51.0739816733802
25357,-0.34160715341568,50.6833566733802
25464,-0.339742720127106,50.7810111672571
25574,-0.341399997472763,50.488040661134
25687,-0.340985685586929,50.1950701550109
25794,-0.341399997472763,50.3415518958262
25903,-0.339535564184189,50.1950631305184
26010,-0.340157032012939,50.14623588358
26120,-0.34160715341568,49.8532653774569
26233,-0.34077849984169,50.1950631305184
26340,-0.340985685586929,50.0974016121491
26449,-0.341814309358597,49.5114605999029
26556,-0.340571343898773,49.7067766121491
26665,-0.34077849984169,49.4138131305184
26779,-0.339742720127106,49.6579493652107
26886,-0.34077849984169,49.6579493652107
26995,-0.340364187955856,49.7556038590876
27102,-0.341192841529846,49.413806106026
27211,-0.340571343898773,49.7067766121491
27329,-0.33932837843895,49.9997471182722
27432,-0.340364187955856,50.14623588358
27541,-0.34243580698967,49.6579493652107
27648,-0.339949876070023,49.7556038590876
27757,-0.340985685586929,49.5602878468413
27871,-0.341192841529846,49.6091150937798
27979,-0.340985685586929,49.3649718345951
28087,-0.340985685586929,49.5114535754105
28194,-0.341399997472763,49.5114535754105
28303,-0.340985685586929,49.2673103162258
28420,-0.341192841529846,49.3161375631642
28524,-0.34077849984169,49.1696558223489
28633,-0.341399997472763,49.2673103162258
28740,-0.341192841529846,48.9743398101027
28849,-0.340364187955856,48.8278580692873
28958,-0.339949876070023,48.8766853162258
29070,-0.341192841529846,48.5348875631642
29179,-0.341399997472763,48.1930898101027
29286,-0.339535564184189,48.4372260447949
29395,-0.339742720127106,48.9255055386718
29509,-0.339535564184189,48.8278440203025
29616,-0.340985685586929,49.0231530080562
29728,-0.340985685586929,48.7301825019331
29832,-0.342642962932587,48.1930687366254
29941,-0.338292598724365,48.6325209835638
30055,-0.340571343898773,48.8766642427485
30162,-0.340985685586929,48.7301754774407
30272,-0.34077849984169,48.43721199581
30379,-0.34160715341568,47.9000982305023
30487,-0.341192841529846,47.5583004774407
30601,-0.340985685586929,47.1188412060098
30708,-0.340571343898773,46.9723594651945
30817,-0.341192841529846,46.5329001937636
30928,-0.339535564184189,46.6793819345789
31033,-0.340985685586929,46.6305476631481
31147,-0.340571343898773,46.6305476631481
31254,-0.340157032012939,46.7282021570249
31363,-0.340985685586929,46.6305406386556
31472,-0.340157032012939,47.0699928855941
31579,-0.340571343898773,47.0699928855941
31693,-0.340364187955856,47.4117906386556
31800,-0.341399997472763,47.0211656386556
31909,-0.339121222496033,47.1676544039634
32016,-0.339742720127106,47.3629633917172
32129,-0.34077849984169,46.8258566509018
32239,-0.340571343898773,46.7282021570249
32346,-0.34077849984169,46.7282021570249
32455,-0.33932837843895,47.2164886753943
32562,-0.340985685586929,47.2164886753943
32672,-0.339949876070023,47.5094591815174
32785,-0.34160715341568,47.4606319345789
32892,-0.342228621244431,46.9235251937636
33001,-0.340571343898773,47.1676684529483
33108,-0.341399997472763,46.8258706998867
33217,-0.341192841529846,46.5329001937636
33331,-0.339535564184189,47.0211796876405
33438,-0.341399997472763,46.8258636753943
33547,-0.340364187955856,47.2164886753943
33654,-0.340157032012939,47.1188341815174
33763,-0.339535564184189,47.5582864284558
33879,-0.340985685586929,47.4606249100865
33984,-0.34160715341568,46.9235111447787
34093,-0.341399997472763,46.5817133917172
34200,-0.342021465301514,46.0934338978403
34309,-0.339535564184189,46.2399156386556
34425,-0.340571343898773,45.9957794039634
34530,-0.34077849984169,46.2887499100865
34639,-0.340157032012939,46.7282021570249
34746,-0.340571343898773,46.6305476631481
34855,-0.340364187955856,46.7770364284558
34971,-0.341399997472763,46.5328931692712
35080,-0.34077849984169,46.4352386753943
35186,-0.340985685586929,46.1910954162096
35293,-0.342642962932587,45.5563271570249
35402,-0.341399997472763,45.7516361447787
35516,-0.341192841529846,45.7516361447787
35623,-0.342228621244431,45.3121838978403
35732,-0.339949876070023,45.3610111447787
35838,-0.341192841529846,45.4098383917172
35948,-0.34077849984169,45.2633566509018
36057,-0.340364187955856,45.1168749100865
36168,-0.34077849984169,45.0680476631481
36279,-0.338914066553116,45.4586726631481
36384,-0.34077849984169,45.2145364284558
36494,-0.341399997472763,44.9703931692712
36608,-0.340157032012939,44.9215659223327
36714,-0.341814309358597,45.0192204162096
36825,-0.340157032012939,44.9215659223327
36930,-0.341399997472763,44.9703931692712
37040,-0.340571343898773,44.6774226631481
37154,-0.340571343898773,44.8239114284558
37260,-0.340157032012939,44.6774296876405
37371,-0.340985685586929,44.6285954162096
37479,-0.34077849984169,44.6774296876405
37586,-0.34077849984169,44.7750912060098
37700,-0.341399997472763,44.7262639590714
37806,-0.34077849984169,44.579782218256
37916,-0.341192841529846,44.4332934529483
38023,-0.341814309358597,44.1403229468252
38132,-0.340985685586929,44.0914886753943
38246,-0.339742720127106,44.4821136753943
38352,-0.340985685586929,44.3844521570249
38462,-0.340364187955856,44.3844521570249
38568,-0.341192841529846,44.1891361447787
38683,-0.34077849984169,44.4821066509018
38792,-0.34077849984169,44.5797681692712
38898,-0.34243580698967,43.8961726631481
39008,-0.340364187955856,43.8961726631481
39114,-0.341814309358597,43.7008636753943
39225,-0.340364187955856,43.9450069345789
39338,-0.341192841529846,44.0426614284558
39444,-0.340157032012939,43.9450069345789
39553,-0.34160715341568,43.8961796876405
39660,-0.341399997472763,43.7985251937636
39769,-0.34160715341568,43.7496979468252
39883,-0.341192841529846,43.3590729468252
39990,-0.341192841529846,43.1149296876405
40099,-0.34077849984169,43.3102456998867
40206,-0.340985685586929,43.2614114284558
40315,-0.339535564184189,43.6032091815174
40431,-0.340985685586929,43.7985181692712
40536,-0.340364187955856,43.8473454162096
40643,-0.34077849984169,43.8473454162096
40752,-0.342021465301514,43.3102386753943
40866,-0.340571343898773,43.3590659223327
40975,-0.34077849984169,43.2614114284558
41082,-0.340985685586929,43.3102386753943
41189,-0.341192841529846,43.1637499100865
41298,-0.34077849984169,42.8219521570249
41412,-0.340985685586929,42.6754633917172
41519,-0.341814309358597,42.8219521570249
41632,-0.34077849984169,42.6266431692712
41735,-0.33932837843895,43.0172751937636
41844,-0.34077849984169,43.1149367121329
41958,-0.341399997472763,43.017282218256
42065,-0.340985685586929,43.017282218256
42175,-0.342228621244431,42.8219732305023
42281,-0.339949876070023,43.0661164896869
42390,-0.34160715341568,42.96846199581
42504,-0.34160715341568,42.7731459835638
42611,-0.342642962932587,42.4801754774407
42720,-0.340985685586929,42.5290027243791
42827,-0.340571343898773,42.4801754774407
42936,-0.340157032012939,42.4313482305023
43050,-0.340985685586929,42.4801754774407
43155,-0.341192841529846,42.5290027243791
43266,-0.340364187955856,42.3336937366254
43375,-0.34243580698967,41.6989254774407
43482,-0.340571343898773,41.4547892427485
43596,-0.340157032012939,41.6501052549947
43703,-0.342021465301514,41.4059690203025
43812,-0.340571343898773,41.8942555386718
43919,-0.341399997472763,41.1618327856102
44033,-0.34160715341568,40.9176895264256
44142,-0.341192841529846,40.8688622794871
44249,-0.342021465301514,40.575891773364
44358,-0.340985685586929,40.7223735141794
44465,-0.340985685586929,40.7712007611178
44574,-0.34160715341568,40.6247190203025
44688,-0.340571343898773,40.6247190203025
44795,-0.340571343898773,40.7712077856102
44904,-0.34243580698967,40.0876122794871
45011,-0.34077849984169,40.136446550918
45120,-0.342642962932587,39.6481600325487
45235,-0.340985685586929,39.4528440203025
45341,-0.342228621244431,39.1598805386718
45450,-0.339535564184189,39.3063622794871
45557,-0.341814309358597,39.013391773364
45666,-0.341192841529846,38.8180757611178
45783,-0.342021465301514,38.6715940203025
45887,-0.341399997472763,38.1344802549947
45996,-0.339742720127106,38.1344802549947
46103,-0.342021465301514,37.8415097488716
46212,-0.34077849984169,37.7926825019331
46326,-0.341192841529846,37.6950209835638
46434,-0.340985685586929,37.3043889590714
46542,-0.34243580698967,36.9625912060098
46649,-0.340364187955856,36.8649367121329
46758,-0.340364187955856,37.157907218256
46874,-0.342228621244431,37.157907218256
46982,-0.340571343898773,37.157907218256
47088,-0.340571343898773,37.3532232305023
47195,-0.341192841529846,37.3532232305023
47304,-0.34077849984169,37.0602597488716
47418,-0.34243580698967,36.8161164896869
47526,-0.342021465301514,36.4254914896869
47634,-0.340571343898773,36.32783699581
47741,-0.340985685586929,35.9860392427485
47850,-0.342228621244431,35.6930757611178
47964,-0.340985685586929,35.8395575019331
48071,-0.340985685586929,35.93721199581
48183,-0.341399997472763,36.0836937366254
48287,-0.340985685586929,35.7418959835638
48396,-0.342228621244431,35.3512709835638
48510,-0.34160715341568,35.1559549713176
48617,-0.340364187955856,35.1071277243791
48726,-0.341399997472763,34.9118117121329
48834,-0.339949876070023,35.0094662060098
48942,-0.342228621244431,34.814157218256
49056,-0.34077849984169,34.814157218256
49163,-0.341399997472763,34.7165027243791
49274,-0.34077849984169,35.15596199581
49383,-0.339949876070023,35.4977597488716
49488,-0.341814309358597,35.3512780080562
49602,-0.341399997472763,35.54658699581
49709,-0.342228621244431,35.0094802549947
49818,-0.34077849984169,35.107141773364
49926,-0.342228621244431,34.7653440203025
50034,-0.341814309358597,34.4235462672409
50148,-0.342850118875504,33.9352597488716
50252,-0.339742720127106,33.7399437366254
50364,-0.342021465301514,33.4469732305023
50471,-0.340985685586929,33.5446277243791
50583,-0.340364187955856,33.4958004774407
50694,-0.340571343898773,33.7887709835638
50801,-0.342021465301514,33.3493187366254
50910,-0.342021465301514,33.20283699581
51017,-0.34077849984169,33.1540097488716
51126,-0.341192841529846,33.0075209835638
51240,-0.34243580698967,32.470407218256
51346,-0.340985685586929,32.470407218256
51456,-0.340157032012939,32.6168889590714
51562,-0.34077849984169,32.6168889590714
51674,-0.341399997472763,32.6168889590714
51786,-0.341814309358597,32.3727456998867
51892,-0.340157032012939,32.6168889590714
52002,-0.341192841529846,32.7633706998867
52108,-0.340571343898773,32.861032218256
52218,-0.34160715341568,32.4215799713176
52333,-0.339949876070023,32.6657232305023
52438,-0.340364187955856,32.6657232305023
52549,-0.34243580698967,32.3727527243791
52655,-0.34160715341568,32.1774367121329
52765,-0.34077849984169,32.1774367121329
52879,-0.340571343898773,32.6168959835638
52986,-0.341814309358597,32.2750982305023
53095,-0.34160715341568,32.3239254774407
53201,-0.340985685586929,32.1774367121329
53311,-0.340985685586929,32.2262639590714
53427,-0.340571343898773,32.1286094651945
53531,-0.340364187955856,32.4215799713176
53641,-0.341399997472763,32.4215799713176
53747,-0.341192841529846,32.5192344651945
53857,-0.341399997472763,32.470407218256
53971,-0.34077849984169,32.5680687366254
54079,-0.341192841529846,32.470407218256
54187,-0.341399997472763,32.3727527243791
54293,-0.341814309358597,31.8356459835638
54403,-0.340157032012939,32.03096199581
54517,-0.340157032012939,32.0797892427485
54623,-0.340985685586929,32.0309549713176
54737,-0.340571343898773,32.3727527243791
54839,-0.341399997472763,32.1774367121329
54949,-0.340364187955856,32.2750912060098
55063,-0.342021465301514,32.0309549713176
55169,-0.341192841529846,32.0309549713176
55280,-0.341399997472763,31.8844662060098
55390,-0.339742720127106,32.1774367121329
55494,-0.341814309358597,32.1774367121329
55608,-0.34160715341568,31.9821206998867
55715,-0.341399997472763,31.4938341815174
55824,-0.340364187955856,31.5914886753943
55932,-0.34160715341568,31.5426614284558
56040,-0.340571343898773,31.6403229468252
56154,-0.340571343898773,32.0309479468252
56261,-0.341399997472763,31.6891501937636
56370,-0.340571343898773,31.9332934529483
56477,-0.341192841529846,32.0309479468252
56589,-0.34160715341568,32.2750912060098
56700,-0.34160715341568,32.1286094651945
56807,-0.341399997472763,31.9332934529483
56916,-0.341192841529846,31.6891501937636
57023,-0.34077849984169,31.7379844651945
57132,-0.341192841529846,31.7379844651945
57246,-0.341814309358597,31.3961867121329
57351,-0.342021465301514,31.4938482305023
57462,-0.34077849984169,31.4450209835638
57569,-0.341399997472763,31.1520504774407
57680,-0.341192841529846,31.3473594651945
57792,-0.341399997472763,31.1520434529483
57899,-0.34077849984169,31.298532218256
58008,-0.34077849984169,31.4938482305023
58115,-0.341814309358597,31.3473664896869
58224,-0.339949876070023,31.8356459835638
58339,-0.341814309358597,31.64033699581
58445,-0.341192841529846,31.5915097488716
58554,-0.34160715341568,31.5915097488716
58661,-0.340571343898773,31.5915097488716
58770,-0.34077849984169,31.5426825019331
58884,-0.34160715341568,31.7379985141794
58991,-0.340985685586929,31.6891642427485
59100,-0.340157032012939,32.2751052549947
59207,-0.339742720127106,32.5680757611178
59316,-0.341192841529846,32.81221199581
59430,-0.342642962932587,32.0797892427485
59539,-0.341814309358597,32.0797892427485
59646,-0.341192841529846,32.0797892427485
59753,-0.34077849984169,32.3727597488716
59862,-0.34243580698967,32.1286164896869
59976,-0.342850118875504,31.3961937366254
60084,-0.34077849984169,31.6891642427485
60192,-0.341192841529846,31.5915027243791
60299,-0.340571343898773,31.7379914896869
60408,-0.340985685586929,31.7379914896869
60522,-0.342228621244431,31.7868257611178
60630,-0.339949876070023,31.8844802549947
60739,-0.341814309358597,31.5426825019331
60846,-0.341399997472763,31.7379914896869
60954,-0.34243580698967,31.298532218256
61068,-0.341399997472763,31.1032162060098
61175,-0.34243580698967,30.8102456998867
61284,-0.341192841529846,30.7125841815174
61391,-0.341814309358597,30.8590729468252
61500,-0.340985685586929,31.1032091815174
61614,-0.34077849984169,31.0543819345789
61721,-0.34160715341568,30.9079001937636
61832,-0.342021465301514,30.956727440702
61939,-0.34077849984169,31.0055617121329
62046,-0.340985685586929,31.0055617121329
62160,-0.341814309358597,30.907907218256
62267,-0.34077849984169,30.9567414896869
62376,-0.340985685586929,31.2497049713176
62484,-0.341192841529846,31.3473594651945
62592,-0.342021465301514,30.9567344651945
62706,-0.341814309358597,30.8590799713176
62813,-0.34160715341568,30.4684549713176
62922,-0.339949876070023,31.0055617121329
63032,-0.340985685586929,30.956727440702
63143,-0.34077849984169,31.1032162060098
63252,-0.340364187955856,31.2008706998867
63359,-0.343678742647171,30.3219662060098
63468,-0.340571343898773,30.6149367121329
63575,-0.34160715341568,30.5661094651945
63684,-0.340985685586929,30.8590729468252
63799,-0.342228621244431,30.5172751937636
63906,-0.339949876070023,31.0543819345789
64014,-0.341814309358597,31.0543819345789
64121,-0.339949876070023,31.737977440702
64235,-0.341399997472763,31.347352440702
64345,-0.340985685586929,31.5914886753943
64450,-0.342228621244431,31.2985251937636
64564,-0.341399997472763,31.0543819345789
64670,-0.341192841529846,30.9078931692712
64779,-0.342021465301514,30.9078931692712
64895,-0.340364187955856,31.2985181692712
64997,-0.34077849984169,31.2985181692712
65106,-0.340985685586929,31.3473454162096
65213,-0.341399997472763,31.5914886753943
65323,-0.34243580698967,31.2496909223327
65438,-0.341192841529846,31.0055476631481
65540,-0.341814309358597,30.7614044039634
65654,-0.340157032012939,31.0543749100865
65759,-0.34160715341568,31.1032021570249
65868,-0.339949876070023,31.1520294039634
65977,-0.34160715341568,31.0543749100865
66093,-0.342228621244431,30.6637499100865
66202,-0.341399997472763,30.7125771570249
66307,-0.34160715341568,30.3219521570249
66414,-0.33932837843895,30.5660954162096
66529,-0.34077849984169,30.956727440702
66635,-0.342228621244431,30.8102456998867
66748,-0.341192841529846,30.7125841815174
66855,-0.340364187955856,30.7614114284558
66962,-0.342021465301514,30.7125841815174
67070,-0.340157032012939,31.0543819345789
67181,-0.34077849984169,31.1032162060098
67288,-0.34077849984169,31.1520504774407
67401,-0.34077849984169,31.1032232305023
67511,-0.342021465301514,30.7125982305023
67617,-0.341399997472763,30.7125982305023
67727,-0.340571343898773,30.85908699581
67839,-0.341814309358597,30.7614325019331
67944,-0.340157032012939,30.9079142427485
68052,-0.339949876070023,31.2008847488716
68161,-0.341192841529846,31.24971199581
68281,-0.342021465301514,31.2008847488716
68384,-0.340157032012939,31.2008847488716
68489,-0.342228621244431,30.7126052549947
68598,-0.340571343898773,30.810266773364
68709,-0.341399997472763,30.6149507611178
68820,-0.342850118875504,30.2731530080562
68927,-0.340571343898773,30.2243257611178
69036,-0.340985685586929,30.46846199581
69145,-0.34077849984169,30.5661235141794
69255,-0.341399997472763,30.5661235141794
69364,-0.342228621244431,29.9801895264256
69474,-0.34077849984169,30.2243327856102
69581,-0.341192841529846,30.3219872794871
69690,-0.340985685586929,30.419641773364
69800,-0.340985685586929,30.2731530080562
69911,-0.341814309358597,30.2243257611178
70019,-0.34160715341568,29.9801825019331
70131,-0.342021465301514,29.6383847488716
70237,-0.340571343898773,29.8337007611178
70351,-0.342021465301514,29.4919030080562
70458,-0.340571343898773,29.638391773364
70567,-0.340985685586929,29.7848735141794
70674,-0.341192841529846,29.8825280080562
70783,-0.34077849984169,30.029016773364
70897,-0.340571343898773,30.1755055386718
71004,-0.341192841529846,30.0778440203025
71114,-0.340364187955856,30.2731600325487
71219,-0.341192841529846,30.419641773364
71329,-0.341399997472763,30.5661235141794
71443,-0.341192841529846,30.46846199581
71547,-0.34077849984169,30.6149507611178
71656,-0.340985685586929,30.6637780080562
71765,-0.34160715341568,30.6149507611178
71879,-0.34243580698967,30.2243187366254
71986,-0.34077849984169,30.2243187366254
72095,-0.341192841529846,30.3708004774407
72204,-0.341192841529846,30.0778299713176
72312,-0.34243580698967,29.9313412060098
72425,-0.341192841529846,29.9313412060098
72532,-0.34160715341568,29.9313412060098
72641,-0.341399997472763,29.7360251937636
72748,-0.342021465301514,29.4430546876405
72858,-0.340985685586929,29.5895364284558
72971,-0.340985685586929,29.5895364284558
73078,-0.34160715341568,29.2477386753943
73187,-0.340985685586929,28.9547681692712
73294,-0.341399997472763,28.9059409223327
73404,-0.340364187955856,29.4430546876405
73517,-0.342021465301514,29.394227440702
73624,-0.341399997472763,29.3454001937636
73733,-0.340985685586929,29.2965659223327
73840,-0.341399997472763,29.5407091815174
73949,-0.341814309358597,29.784852440702
74063,-0.342228621244431,29.4430546876405
74170,-0.340985685586929,29.4918819345789
74279,-0.339949876070023,29.6383636753943
74386,-0.339949876070023,29.8825069345789
74495,-0.34160715341568,30.0289886753943
74608,-0.34077849984169,29.8336796876405
74716,-0.339949876070023,30.2731319345789
74825,-0.341192841529846,30.3219591815174
74932,-0.341192841529846,30.6149296876405
75041,-0.34160715341568,30.566102440702
75156,-0.341399997472763,30.8102456998867
75262,-0.34243580698967,30.5172751937636
75371,-0.340985685586929,30.7125841815174
75478,-0.343471586704254,30.1266501937636
75587,-0.34077849984169,30.1266501937636
75701,-0.340571343898773,30.3707934529483
75808,-0.341814309358597,30.4196206998867
75917,-0.340571343898773,30.4684479468252
76024,-0.341192841529846,30.4196206998867
76133,-0.341399997472763,30.5172751937636
76247,-0.341192841529846,30.4196136753943
76354,-0.342021465301514,30.175477440702
76463,-0.34077849984169,30.2731389590714
76570,-0.340364187955856,30.6637639590714
76679,-0.340985685586929,30.8590729468252
76793,-0.340985685586929,31.0055546876405
76900,-0.341399997472763,30.6637569345789
77009,-0.340157032012939,30.8590729468252
77116,-0.340571343898773,30.9079001937636
77225,-0.342021465301514,30.5172751937636
77339,-0.34077849984169,31.2008706998867
77446,-0.341192841529846,31.0543819345789
77556,-0.340157032012939,31.3961796876405
77663,-0.339949876070023,31.6403229468252
77771,-0.339742720127106,32.2262569345789
77885,-0.340571343898773,32.0797751937636
77992,-0.341192841529846,32.2262569345789
78101,-0.339742720127106,32.2750841815174
78208,-0.340985685586929,32.3727386753943
78317,-0.341399997472763,32.2750841815174
78431,-0.342228621244431,32.2750841815174
78538,-0.341192841529846,32.3239114284558
78645,-0.342021465301514,32.128602440702
78756,-0.342228621244431,32.0797751937636
78863,-0.341192841529846,31.8844591815174
78977,-0.339949876070023,32.0797681692712
79084,-0.341814309358597,31.8844591815174
79193,-0.340571343898773,32.0797751937636
79300,-0.342228621244431,32.1286094651945
79412,-0.342228621244431,31.8844732305023
79523,-0.340985685586929,32.079782218256
79630,-0.340157032012939,32.079782218256
79739,-0.340364187955856,32.3727527243791
79846,-0.341814309358597,31.9333004774407
79956,-0.341399997472763,31.9821277243791
80069,-0.34077849984169,32.3239254774407
80176,-0.34160715341568,32.2750982305023
80285,-0.341814309358597,32.2262709835638
80392,-0.340985685586929,31.8356389590714
80501,-0.34160715341568,31.6403229468252
80615,-0.340157032012939,32.128602440702
80722,-0.341814309358597,31.9821206998867
80831,-0.340985685586929,31.8356319345789
80938,-0.34160715341568,31.9332864284558
81047,-0.341814309358597,31.5426614284558
81163,-0.341814309358597,31.2985181692712
81268,-0.341399997472763,31.1520294039634
81377,-0.340364187955856,31.2496838978403
81484,-0.342228621244431,31.2008566509018
81593,-0.341192841529846,31.2496838978403
81706,-0.34077849984169,31.2008566509018
81813,-0.340985685586929,31.3961656386556
81923,-0.340985685586929,31.2008496264094
82030,-0.341399997472763,30.8590518733478
82139,-0.340157032012939,31.1031951325325
82254,-0.341192841529846,31.2985041202863
82362,-0.341814309358597,30.9078791202863
82469,-0.340985685586929,31.200842601917
82576,-0.340985685586929,31.1031810835476
82685,-0.34160715341568,31.0543538366092
82799,-0.341814309358597,31.2984970957938
82906,-0.34077849984169,31.2496698488554
83015,-0.339949876070023,31.4938131080401
83122,-0.34160715341568,31.2984970957938
83231,-0.34160715341568,31.2496698488554
83345,-0.341814309358597,31.3473243427323
83454,-0.342228621244431,31.0055265896707
83564,-0.340157032012939,31.2496698488554
83668,-0.340571343898773,31.3473313672247
83777,-0.34160715341568,31.2008496264094
83891,-0.341399997472763,31.2985041202863
83998,-0.342642962932587,31.0543608611016
84108,-0.341399997472763,31.200842601917
84214,-0.341814309358597,30.9078720957938
84323,-0.34160715341568,31.0055265896707
84437,-0.341192841529846,30.859037824363
84544,-0.34243580698967,30.5172400713014
84654,-0.340985685586929,30.5660673182399
84762,-0.34160715341568,30.3707513059936
84869,-0.340571343898773,30.3707513059936
84983,-0.341399997472763,30.3219240590552
85090,-0.34160715341568,30.0289535529321
85199,-0.341399997472763,29.9801263059936
85306,-0.341399997472763,29.9801263059936
85415,-0.340157032012939,30.2242695651783
85529,-0.342228621244431,29.8824718121167
85636,-0.34160715341568,29.7359900713014
85743,-0.34160715341568,29.7359900713014
85852,-0.340985685586929,30.077787824363
85964,-0.33932837843895,30.4195855774245
86075,-0.341192841529846,30.4195855774245
86182,-0.340364187955856,30.6149015896707
86291,-0.34160715341568,30.810217601917
86398,-0.341399997472763,30.7613903549785
86508,-0.34243580698967,30.5660743427323
86621,-0.342642962932587,30.2731038366092
86728,-0.340364187955856,30.6637288366092
86837,-0.34077849984169,30.7125631080401
86943,-0.34243580698967,30.3707653549785
87053,-0.340157032012939,30.7125631080401
87167,-0.338706910610199,31.2496768733478
87273,-0.342021465301514,31.1031951325325
87383,-0.341399997472763,30.8590518733478
87490,-0.34305727481842,30.6149086141632
87600,-0.339742720127106,31.0055336141632
87716,-0.340157032012939,31.2008496264094
87820,-0.340364187955856,31.4449928855941
87930,-0.340364187955856,31.7867906386556
88036,-0.34160715341568,31.9332723794709
88146,-0.34160715341568,31.7867906386556
88261,-0.34243580698967,31.2008496264094
88366,-0.339742720127106,31.2496768733478
88476,-0.342228621244431,31.1031951325325
88582,-0.342228621244431,30.7613973794709
88692,-0.340157032012939,30.7125701325325
88804,-0.341192841529846,30.7125701325325
88917,-0.341814309358597,30.5660883917172
89022,-0.343678742647171,30.0778088978403
89128,-0.340364187955856,30.3219521570249
89238,-0.34160715341568,30.5172681692712
89352,-0.34243580698967,30.1754704162096
89459,-0.343264430761337,30.2242976631481
89568,-0.341399997472763,30.0778088978403
89674,-0.342228621244431,29.6871838978403
89784,-0.339742720127106,30.1754633917172
89898,-0.342021465301514,29.8336656386556
90004,-0.34243580698967,29.5406951325325
90116,-0.34243580698967,29.2965518733478
90220,-0.341399997472763,29.2477246264094
90330,-0.339949876070023,29.7360041202863
90444,-0.340364187955856,29.8336586141632
90550,-0.34160715341568,29.5406881080401
90661,-0.340985685586929,29.5406881080401
90767,-0.34243580698967,29.1988903549785
90875,-0.340985685586929,29.2965448488554
90989,-0.339742720127106,29.3941993427323
91096,-0.340985685586929,29.296537824363
91207,-0.34305727481842,29.0523945651783
91316,-0.340985685586929,29.0035602937474
91421,-0.342228621244431,28.7594240590552
91535,-0.341192841529846,28.5152807998705
91642,-0.341399997472763,28.173483046809
91751,-0.340985685586929,27.8805125406859
91859,-0.34243580698967,27.441053269255
91967,-0.341399997472763,27.3922260223165
92081,-0.341399997472763,27.0016010223165
92188,-0.342850118875504,26.5621487753781
92297,-0.338499754667282,27.2457442815012
92404,-0.34160715341568,27.3922260223165
92516,-0.340571343898773,27.5387147876243
92627,-0.34160715341568,27.6363692815012
92734,-0.340571343898773,28.0269942815012
92841,-0.34160715341568,27.9293397876243
92950,-0.341399997472763,27.5875420345628
93059,-0.342228621244431,27.4898875406859
93173,-0.341399997472763,27.2945715284396
93280,-0.340157032012939,27.7828510223165
93389,-0.341192841529846,28.0269872570088
93496,-0.340364187955856,28.1734760223165
93607,-0.342642962932587,27.5875350100703
93719,-0.340985685586929,27.4410462447625
93826,-0.34243580698967,27.2945574794548
93935,-0.340985685586929,27.3922119733317
94042,-0.342021465301514,27.0992414672085
94151,-0.341192841529846,27.1968959610854
94266,-0.338706910610199,27.929318714147
94372,-0.34243580698967,27.5875209610854
94481,-0.340571343898773,27.8316642202701
94588,-0.341192841529846,27.5875209610854
94697,-0.34077849984169,27.8316642202701
94811,-0.341814309358597,27.6363552325163
94918,-0.34160715341568,27.6363552325163
95027,-0.341192841529846,27.7828369733317
95134,-0.34305727481842,27.4898664672085
95243,-0.341399997472763,27.4898664672085
95357,-0.342228621244431,27.0504142202701
95466,-0.339949876070023,27.5875209610854
95573,-0.340985685586929,27.6363482080239
95680,-0.340985685586929,27.587513936593
95789,-0.342228621244431,27.2945504549623
95901,-0.340985685586929,27.2945504549623
96012,-0.340364187955856,27.538693714147
96119,-0.341814309358597,27.148068714147
96226,-0.339949876070023,27.4410392202701
96335,-0.34077849984169,27.6851824794548
96449,-0.339535564184189,28.0269802325163
96557,-0.341814309358597,27.8316712447625
96666,-0.340571343898773,28.0758145039472
96772,-0.342021465301514,28.0269872570088
96881,-0.342228621244431,27.6851895039472
96995,-0.341399997472763,27.3433917508856
97102,-0.341399997472763,27.3922189978241
97211,-0.341399997472763,27.4410462447625
97318,-0.340571343898773,27.7340167508856
97427,-0.341814309358597,27.8316712447625
97541,-0.34077849984169,27.6851895039472
97648,-0.34160715341568,27.4410462447625
97759,-0.341399997472763,27.489873491701
97869,-0.340985685586929,27.5875279855779
97973,-0.34243580698967,27.6363552325163
98087,-0.341814309358597,27.5387007386394
98194,-0.340571343898773,27.8316712447625
98303,-0.342021465301514,27.7340167508856
98411,-0.34160715341568,27.6363622570088
98519,-0.34160715341568,27.831678269255
98633,-0.342850118875504,27.3922260223165
98740,-0.340985685586929,27.5387077631319
98849,-0.341192841529846,27.3922189978241
98956,-0.341192841529846,27.4410462447625
99068,-0.33932837843895,27.9781600100703
99179,-0.340985685586929,28.0758145039472
99286,-0.34305727481842,27.6851895039472
99395,-0.340985685586929,27.489873491701
99502,-0.342228621244431,27.489873491701
99613,-0.341814309358597,27.4410462447625
99725,-0.341192841529846,27.5387007386394
99832,-0.340571343898773,27.6363622570088
99939,-0.34160715341568,27.099248491701
100048,-0.34077849984169,27.1969100100703
100159,-0.342021465301514,26.8062850100703
100271,-0.341192841529846,26.9039395039472
100378,-0.342228621244431,26.7086305161934
100487,-0.342021465301514,26.8062920345628
100594,-0.34160715341568,27.0504352937474
100703,-0.34077849984169,26.9527807998705
100818,-0.341399997472763,26.8062920345628
100924,-0.34077849984169,27.1969240590552
101033,-0.340571343898773,27.0992695651783
101140,-0.340364187955856,26.7086445651783
101249,-0.34160715341568,26.8062990590552
101363,-0.341192841529846,26.8551263059936
101470,-0.340157032012939,27.5387218121167
101579,-0.34077849984169,27.2945855774245
101686,-0.34305727481842,26.6109900713014
101795,-0.341399997472763,26.3668468121167
101911,-0.341814309358597,26.0250490590552
102019,-0.341399997472763,26.0738763059936
102125,-0.340985685586929,26.220358046809
102232,-0.342228621244431,26.2691923182399
102341,-0.34243580698967,25.6344240590552
102455,-0.342021465301514,25.6832513059936
102563,-0.340157032012939,26.1715307998705
102671,-0.341399997472763,25.8785602937474
102778,-0.340985685586929,25.9273875406859
102892,-0.341192841529846,26.0738692815012
102998,-0.340985685586929,26.7086305161934
103109,-0.341399997472763,26.4644872570088
103218,-0.341399997472763,26.5133145039472
103324,-0.340157032012939,27.050428269255
103438,-0.342228621244431,27.2945715284396
103544,-0.340571343898773,27.4898875406859
103654,-0.342642962932587,27.3922260223165
103761,-0.34160715341568,26.9527737753781
103870,-0.341399997472763,27.0992555161934
103984,-0.342228621244431,27.1480897876243
104090,-0.341814309358597,27.2945785529321
104200,-0.340985685586929,27.392233046809
104306,-0.34077849984169,27.1969240590552
104418,-0.340571343898773,27.1480968121167
104530,-0.341814309358597,27.0992695651783
104636,-0.342021465301514,26.8551333304861
104746,-0.340364187955856,27.3434198488554
104852,-0.341192841529846,27.294592601917
104965,-0.340985685586929,27.0016220957938
105077,-0.34160715341568,26.8551403549785
105183,-0.341192841529846,27.294592601917
105293,-0.340985685586929,27.294592601917
105399,-0.341399997472763,27.4899015896707
105510,-0.341399997472763,27.4410743427323
105623,-0.341192841529846,27.4899015896707
105729,-0.341814309358597,27.294592601917
105839,-0.342228621244431,27.3434268733478
105945,-0.34160715341568,27.2945996264094
106055,-0.341399997472763,27.2945996264094
106169,-0.342228621244431,27.4410883917172
106275,-0.341192841529846,26.8063201325325
106385,-0.342021465301514,26.7086656386556
106491,-0.341192841529846,26.5621768733478
106600,-0.338914066553116,27.1969451325325
106714,-0.342228621244431,26.8063201325325
106821,-0.339535564184189,27.2945996264094
106930,-0.342642962932587,27.0016291202863
107037,-0.341192841529846,27.2457653549785
107146,-0.342228621244431,27.0504563672247
107262,-0.34160715341568,26.7086586141632
107371,-0.340157032012939,26.9528018733478
107477,-0.342021465301514,26.5621768733478
107583,-0.340985685586929,26.9528018733478
107692,-0.34243580698967,26.6110041202863
107806,-0.34077849984169,27.0016361447787
107914,-0.34077849984169,27.0504704162096
108022,-0.341192841529846,27.2457794039634
108129,-0.341399997472763,27.1969521570249
108238,-0.340985685586929,26.6598383917172
108352,-0.339949876070023,27.2457794039634
108459,-0.341814309358597,26.9528088978403
108570,-0.339742720127106,27.2946066509018
108675,-0.341814309358597,27.0504633917172
108784,-0.342228621244431,26.9528088978403
108898,-0.342228621244431,26.8063271570249
109005,-0.342021465301514,26.6110181692712
109114,-0.341192841529846,27.0504704162096
109221,-0.342228621244431,26.8551614284558
109330,-0.339949876070023,27.3922681692712
109444,-0.344093084335327,26.4157021570249
109551,-0.341399997472763,26.3180476631481
109662,-0.342021465301514,26.0739114284558
109771,-0.340157032012939,26.5621909223327
109876,-0.34243580698967,26.2203931692712
109990,-0.34160715341568,25.9274226631481
110097,-0.341814309358597,25.9274226631481
110206,-0.34160715341568,25.5367976631481
110314,-0.342021465301514,25.2438271570249
110422,-0.341399997472763,24.8043749100865
110536,-0.340985685586929,24.9996838978403
110643,-0.341814309358597,24.7067133917172
110752,-0.34077849984169,24.9996838978403
110859,-0.34160715341568,25.1461656386556
110971,-0.34077849984169,25.2926544039634
111082,-0.342228621244431,25.0973454162096
111189,-0.340571343898773,25.2926614284558
111298,-0.340985685586929,25.1949999100865
111405,-0.342850118875504,24.9508566509018
111514,-0.342021465301514,24.6578861447787
111628,-0.341192841529846,24.7555406386556
111735,-0.340985685586929,24.8531951325325
111844,-0.34077849984169,24.9020294039634
111951,-0.341399997472763,25.1461726631481
112062,-0.341814309358597,25.1461726631481
112174,-0.341399997472763,24.9508566509018
112281,-0.342642962932587,24.8043678855941
112390,-0.342021465301514,24.7067133917172
112497,-0.340157032012939,25.0485111447787
112606,-0.341814309358597,25.2926544039634
112721,-0.34160715341568,25.1461726631481
112827,-0.342642962932587,24.8043749100865
112936,-0.34160715341568,24.7067204162096
113043,-0.341814309358597,24.1207794039634
113152,-0.340571343898773,24.2184409223327
113266,-0.34160715341568,24.5602386753943
113373,-0.341814309358597,24.3649296876405
113483,-0.34243580698967,24.3160954162096
113589,-0.342228621244431,24.2184409223327
113698,-0.340985685586929,24.2672681692712
113812,-0.342021465301514,23.9254704162096
113922,-0.34077849984169,24.1207864284558
114028,-0.341192841529846,24.0231249100865
114135,-0.341192841529846,24.2184338978403
114244,-0.341814309358597,24.0719521570249
114358,-0.34243580698967,24.0231178855941
114466,-0.340364187955856,24.4137428855941
114574,-0.341814309358597,24.3649156386556
114681,-0.34077849984169,24.3649156386556
114790,-0.34243580698967,24.1207723794709
114904,-0.342021465301514,23.8278018733478
115012,-0.342228621244431,23.4371768733478
115121,-0.341192841529846,23.2418608611016
115227,-0.341192841529846,23.3395153549785
115336,-0.341814309358597,23.1930336141632
115450,-0.341814309358597,22.8024086141632
115557,-0.342642962932587,22.3629493427323
115667,-0.342228621244431,22.5582653549785
115773,-0.341814309358597,22.4606108611016
115882,-0.340571343898773,22.7535813672247
115996,-0.342642962932587,22.4606108611016
116103,-0.341399997472763,22.3629563672247
116213,-0.340571343898773,22.7535813672247
116323,-0.34160715341568,22.9488973794709
116428,-0.34160715341568,23.0465518733478
116542,-0.340985685586929,22.8512358611016
116649,-0.340985685586929,22.9488903549785
116758,-0.34305727481842,22.4606108611016
116867,-0.342642962932587,22.1188131080401
116974,-0.341399997472763,22.0211586141632
117088,-0.341399997472763,22.0211586141632
117195,-0.340985685586929,22.1188131080401
117304,-0.34077849984169,21.9723313672247
117413,-0.342642962932587,21.8746698488554
117522,-0.34160715341568,21.6305265896707
117634,-0.342228621244431,21.7281881080401
117741,-0.34077849984169,21.9235041202863
117850,-0.342642962932587,21.6305336141632
117957,-0.342021465301514,21.6793608611016
118067,-0.341399997472763,21.7770153549785
118180,-0.341192841529846,21.7281881080401
118287,-0.34160715341568,21.5328720957938
118396,-0.34160715341568,21.2887288366092
118503,-0.341399997472763,21.3863833304861
118613,-0.341192841529846,21.5816923182399
118726,-0.34160715341568,21.2887218121167
118833,-0.342642962932587,20.9469240590552
118942,-0.339949876070023,21.1910673182399
119049,-0.341814309358597,21.1422400713014
119158,-0.341192841529846,21.1422400713014
119272,-0.342228621244431,20.8492765896707
119379,-0.341192841529846,20.8981038366092
119488,-0.342021465301514,20.7516220957938
119595,-0.341814309358597,20.6051403549785
119704,-0.341814309358597,20.6051403549785
119822,-0.34160715341568,20.7516220957938
119925,-0.340364187955856,21.044592601917
120034,-0.341192841529846,21.0934198488554
120141,-0.340985685586929,21.3863833304861
120250,-0.341192841529846,21.3863833304861
120365,-0.341399997472763,21.5328650713014
120472,-0.339949876070023,21.8258355774245
120580,-0.34160715341568,21.1910673182399
120687,-0.341192841529846,21.4352035529321
120796,-0.341814309358597,20.8980968121167
120910,-0.34160715341568,21.1422400713014
121017,-0.342021465301514,20.9469310835476
121126,-0.340985685586929,21.2398945651783
121233,-0.34160715341568,21.2398945651783
121342,-0.341399997472763,20.9469240590552
121456,-0.342021465301514,20.9469240590552
121563,-0.340985685586929,20.9469240590552
121672,-0.341399997472763,21.1910673182399
121779,-0.339949876070023,21.3863763059936
121888,-0.340985685586929,21.3375420345628
122002,-0.342228621244431,21.0934057998705
122109,-0.340985685586929,21.1910602937474
122223,-0.341399997472763,21.0934057998705
122324,-0.34077849984169,20.8980968121167
122435,-0.341192841529846,21.0445785529321
122549,-0.341399997472763,20.6539535529321
122655,-0.34243580698967,20.5074647876243
122766,-0.34077849984169,20.8492625406859
122872,-0.341192841529846,21.0933987753781
122981,-0.341814309358597,21.1422260223165
123095,-0.34243580698967,20.8492555161934
123201,-0.341814309358597,20.9469100100703
123311,-0.340571343898773,20.800428269255
123418,-0.342228621244431,21.2398875406859
123527,-0.34077849984169,21.3863763059936
123641,-0.34077849984169,21.6793468121167
123747,-0.341399997472763,21.3863763059936
123857,-0.34077849984169,21.7770083304861
123964,-0.342021465301514,21.6793538366092
124073,-0.340985685586929,21.874662824363
124187,-0.342228621244431,21.7281810835476
124293,-0.34077849984169,22.0211515896707
124403,-0.341192841529846,22.0699788366092
124509,-0.340571343898773,22.1676403549785
124623,-0.340571343898773,22.4606108611016
124733,-0.341192841529846,22.3629493427323
124839,-0.339742720127106,22.8024015896707
124949,-0.342021465301514,22.5094310835476
125055,-0.341814309358597,22.6070855774245
125166,-0.34160715341568,22.3629423182399
125279,-0.342021465301514,22.1188060835476
125385,-0.341814309358597,22.3629493427323
125495,-0.34388592839241,21.9234900713014
125601,-0.341814309358597,21.7770083304861
125711,-0.340571343898773,21.8746698488554
125825,-0.341399997472763,21.7281810835476
125931,-0.342021465301514,21.5816993427323
126041,-0.341192841529846,21.7281810835476
126147,-0.342228621244431,21.5328720957938
126256,-0.342228621244431,21.6305336141632
126373,-0.341814309358597,21.6793608611016
126477,-0.34160715341568,21.3375631080401
126586,-0.341814309358597,21.3375631080401
126693,-0.34160715341568,21.3375631080401
126802,-0.34243580698967,21.3863903549785
126918,-0.34160715341568,21.3863903549785
127023,-0.341192841529846,21.5328720957938
127132,-0.341192841529846,21.3863833304861
127239,-0.342021465301514,21.2887288366092
127348,-0.342021465301514,21.2399015896707
127464,-0.341399997472763,21.4840448488554
127573,-0.342021465301514,21.5328720957938
127678,-0.342021465301514,21.2887358611016
127785,-0.340985685586929,21.5328720957938
127894,-0.341192841529846,21.4352105774245
128008,-0.339949876070023,21.7281810835476
128116,-0.342021465301514,21.5328720957938
128224,-0.34243580698967,21.3863833304861
128331,-0.34243580698967,21.3863833304861
128440,-0.341399997472763,21.1422400713014
128557,-0.34077849984169,21.3863833304861
128661,-0.34160715341568,21.1910673182399
128774,-0.342021465301514,21.2887288366092
128877,-0.341192841529846,21.484037824363
128986,-0.341814309358597,21.5816923182399
129100,-0.341814309358597,21.4352105774245
129207,-0.341192841529846,21.4352105774245
129316,-0.341192841529846,21.5816923182399
129423,-0.34077849984169,21.8258355774245
129532,-0.339535564184189,22.5582583304861
129646,-0.34160715341568,22.7047400713014
129753,-0.34160715341568,22.7535673182399
129864,-0.341814309358597,22.4605968121167
129973,-0.34160715341568,22.7047400713014
130078,-0.341399997472763,22.7047400713014
130192,-0.340985685586929,22.6070785529321
130299,-0.343264430761337,22.2164535529321
130408,-0.34160715341568,22.2164535529321
130516,-0.342228621244431,21.9234900713014
130624,-0.34160715341568,21.7770083304861
130738,-0.341814309358597,22.0699788366092
130845,-0.342228621244431,22.1676403549785
130954,-0.342228621244431,21.9723313672247
131061,-0.342021465301514,21.8258496264094
131173,-0.34160715341568,21.6793678855941
131284,-0.340985685586929,21.6305336141632
131391,-0.34077849984169,22.0699928855941
131500,-0.341814309358597,22.0211656386556
131607,-0.341399997472763,22.2164746264094
131718,-0.341399997472763,22.0699858611016
131830,-0.34160715341568,22.3141291202863
131937,-0.34243580698967,22.216467601917
132046,-0.340571343898773,22.4117836141632
132153,-0.342642962932587,22.0699858611016
132264,-0.340985685586929,22.216467601917
132376,-0.343471586704254,21.7770153549785
132483,-0.339742720127106,22.1676403549785
132592,-0.341814309358597,22.0211586141632
132699,-0.342228621244431,21.8746768733478
132808,-0.343471586704254,21.6793678855941
132922,-0.34243580698967,21.0934268733478
133029,-0.341192841529846,21.2399086141632
133138,-0.340985685586929,21.2887358611016
133245,-0.341399997472763,21.4840448488554
133354,-0.340985685586929,21.5328720957938
133468,-0.34160715341568,21.6305265896707
133575,-0.34160715341568,21.6793538366092
133684,-0.342642962932587,21.484037824363
133791,-0.341814309358597,21.4352105774245
133900,-0.34077849984169,21.3375560835476
134016,-0.340985685586929,21.3863833304861
134123,-0.34160715341568,21.2399015896707
134228,-0.340985685586929,21.2887288366092
134337,-0.340985685586929,21.3863833304861
134451,-0.34243580698967,20.8004423182399
134558,-0.340157032012939,21.1422400713014
134669,-0.342228621244431,20.8981038366092
134774,-0.341399997472763,20.9957583304861
134883,-0.341814309358597,20.9469310835476
134997,-0.34160715341568,21.0445855774245
135104,-0.34243580698967,20.702787824363
135214,-0.341192841529846,20.8004423182399
135323,-0.341399997472763,20.8004423182399
135429,-0.342228621244431,20.7516150713014
135543,-0.34160715341568,20.6051333304861
135650,-0.341814309358597,20.5074788366092
135759,-0.341192841529846,20.2145083304861
135867,-0.340985685586929,20.2145083304861
135975,-0.34077849984169,20.5563060835476
136089,-0.340985685586929,20.5563060835476
136196,-0.34160715341568,20.5074788366092
136305,-0.342021465301514,20.2145083304861
136412,-0.342021465301514,20.0191993427323
136524,-0.341192841529846,20.0680265896707
136635,-0.340157032012939,20.6051403549785
136742,-0.342021465301514,20.3121698488554
136851,-0.34243580698967,20.0191993427323
136958,-0.340985685586929,20.2145083304861
137069,-0.34243580698967,20.2145083304861
137181,-0.342642962932587,20.0191923182399
137288,-0.341399997472763,19.8238763059936
137397,-0.342021465301514,19.8727035529321
137504,-0.34160715341568,19.6773875406859
137615,-0.343264430761337,19.0914465284396
137727,-0.342228621244431,18.8961375406859
137834,-0.341399997472763,18.7496487753781
137943,-0.34077849984169,19.0426192815012
138049,-0.34077849984169,19.0914535529321
138159,-0.342021465301514,19.1402807998705
138274,-0.342228621244431,18.798483046809
138379,-0.342228621244431,18.5543468121167
138489,-0.34077849984169,18.5055195651783
138595,-0.341192841529846,18.3590307998705
138705,-0.34160715341568,18.2613763059936
138819,-0.341399997472763,17.8707513059936
138925,-0.340985685586929,18.1148875406859
139035,-0.34243580698967,17.9683987753781
139141,-0.341399997472763,18.0172260223165
139251,-0.340364187955856,18.4078510223165
139367,-0.34243580698967,18.2613622570088
139474,-0.339949876070023,19.1891010223165
139581,-0.34243580698967,19.0426122570088
139687,-0.34243580698967,18.6031529855779
139797,-0.340985685586929,18.7008074794548
139912,-0.341399997472763,18.8472892202701
140020,-0.341814309358597,18.7008074794548
140128,-0.34160715341568,18.8472892202701
140234,-0.342228621244431,18.8472892202701
140344,-0.341399997472763,18.944943714147
140458,-0.342642962932587,18.7008004549623
140565,-0.341192841529846,18.8472821957777
140675,-0.340985685586929,18.993763936593
140780,-0.342021465301514,19.0914254549623
140890,-0.342021465301514,18.9937709610854
141004,-0.340985685586929,19.0425982080239
141110,-0.341814309358597,18.8961164672085
141220,-0.341814309358597,18.944943714147
141327,-0.34160715341568,19.0425982080239
141436,-0.341192841529846,19.0914254549623
141550,-0.34160715341568,19.1890799488392
141656,-0.342642962932587,19.0425911835314
141768,-0.340985685586929,19.0425911835314
141875,-0.343471586704254,18.5054844427161
141981,-0.34077849984169,18.3101754549623
142095,-0.341814309358597,18.3590027019008
142202,-0.34160715341568,18.554318714147
142311,-0.342021465301514,18.6519802325163
142418,-0.342228621244431,18.4566712447625
142527,-0.341814309358597,18.2125279855779
142641,-0.341192841529846,18.3101824794548
142748,-0.341399997472763,18.4566642202701
142857,-0.341192841529846,18.4566642202701
142966,-0.340985685586929,18.6519732080239
143075,-0.341192841529846,18.7984549488392
143187,-0.341192841529846,18.7984549488392
143294,-0.342021465301514,18.6031459610854
143403,-0.341399997472763,18.4566571957777
143510,-0.340985685586929,18.1148594427161
143620,-0.342021465301514,18.0172049488392
143733,-0.341399997472763,18.0660321957777
143840,-0.341399997472763,18.1636866896546
143949,-0.34160715341568,18.1636866896546
144056,-0.342021465301514,18.0172049488392
144165,-0.34243580698967,17.6754071957777
144279,-0.34077849984169,18.2613482080239
144386,-0.342228621244431,18.1148664672085
144495,-0.341814309358597,18.2125209610854
144602,-0.342021465301514,18.1148664672085
144711,-0.34077849984169,18.3590097263932
144825,-0.341192841529846,18.6031459610854
144932,-0.341814309358597,18.7008004549623
145041,-0.340985685586929,18.9449366896546
145148,-0.340985685586929,19.0914184304699
145257,-0.342642962932587,18.7007934304699
145374,-0.342228621244431,18.3589956774083
145478,-0.340985685586929,18.5543046651621
145587,-0.34160715341568,18.5054774182237
145694,-0.34160715341568,18.4566501712852
145803,-0.340985685586929,18.6031319121006
145918,-0.34243580698967,18.6031319121006
146025,-0.341399997472763,18.4078158998543
146133,-0.34077849984169,18.8472751712852
146240,-0.341814309358597,18.6519661835314
146349,-0.341192841529846,19.1890729243468
146463,-0.341814309358597,18.7007934304699
146575,-0.342021465301514,18.6519661835314
146681,-0.342021465301514,18.7007934304699
146786,-0.340985685586929,19.2867274182237
146895,-0.341814309358597,19.4332161835314
147009,-0.342228621244431,19.1890799488392
147117,-0.341399997472763,19.0914254549623
147225,-0.341814309358597,18.9937709610854
147332,-0.34160715341568,18.8472892202701
147441,-0.34077849984169,19.0426052325163
147555,-0.342228621244431,18.896123491701
147662,-0.342228621244431,18.9937850100703
147774,-0.34077849984169,19.237928269255
147878,-0.340571343898773,19.2867555161934
147987,-0.341814309358597,19.0914465284396
148101,-0.342228621244431,18.9449647876243
148208,-0.342228621244431,18.6520013059936
148318,-0.342021465301514,18.4078650713014
148424,-0.34077849984169,18.7984970957938
148533,-0.340364187955856,18.7496698488554
148647,-0.34160715341568,18.8961515896707
148754,-0.34243580698967,18.6520083304861
148863,-0.341399997472763,18.749662824363
148974,-0.340571343898773,18.9938060835476
149079,-0.340985685586929,19.3356038366092
149193,-0.340985685586929,19.3844310835476
149300,-0.342021465301514,19.2379493427323
149409,-0.341399997472763,19.4332583304861
149518,-0.34160715341568,19.4332583304861
149625,-0.340985685586929,19.6285673182399
149739,-0.341399997472763,19.5797400713014
149846,-0.34160715341568,19.4332583304861
149955,-0.341814309358597,19.1891150713014
150062,-0.34243580698967,18.8473173182399
150174,-0.341399997472763,18.8961445651783
150285,-0.340985685586929,19.1402807998705
150392,-0.342021465301514,19.1402807998705
150501,-0.342021465301514,18.9449718121167
150608,-0.340985685586929,18.7496557998705
150718,-0.342021465301514,18.7496557998705
150831,-0.34160715341568,18.9449718121167
150938,-0.341192841529846,18.8961445651783
151047,-0.342228621244431,18.9449788366092
151154,-0.342021465301514,19.091467601917
151263,-0.342021465301514,18.9449858611016
151377,-0.341399997472763,19.091467601917
151484,-0.342228621244431,18.9449858611016
151593,-0.341399997472763,19.3844381080401
151700,-0.341192841529846,19.6285743427323
151809,-0.34160715341568,19.5797470957938
151925,-0.340985685586929,19.530912824363
152030,-0.34160715341568,19.3355968121167
152139,-0.34077849984169,19.6285673182399
152246,-0.342021465301514,19.6773945651783
152355,-0.342228621244431,19.6773945651783
152470,-0.341814309358597,19.4332513059936
152576,-0.342228621244431,19.1891150713014
152685,-0.342228621244431,19.0426333304861
152792,-0.341399997472763,19.0426333304861
152901,-0.341399997472763,18.9449788366092
153016,-0.34160715341568,19.1402948488554
153125,-0.342642962932587,18.8473243427323
153231,-0.341399997472763,18.6031810835476
153338,-0.341399997472763,18.8473243427323
153447,-0.34077849984169,18.6520153549785
153561,-0.342228621244431,18.7008496264094
153668,-0.341192841529846,18.9938201325325
153777,-0.341192841529846,18.9449928855941
153884,-0.342642962932587,18.6520223794709
153993,-0.341814309358597,18.6520223794709
154107,-0.34160715341568,18.6520223794709
154214,-0.341399997472763,18.8473313672247
154327,-0.341192841529846,18.8961586141632
154430,-0.340364187955856,19.4332723794709
154539,-0.341399997472763,19.3844451325325
154653,-0.34160715341568,19.2379633917172
154760,-0.340985685586929,19.4820996264094
154870,-0.339535564184189,20.0680336141632
154977,-0.342850118875504,19.6285813672247
155085,-0.341814309358597,19.6285813672247
155199,-0.34160715341568,19.6774086141632
155306,-0.342021465301514,19.5797541202863
155415,-0.342850118875504,19.1891291202863
155522,-0.342021465301514,19.0914746264094
155631,-0.34243580698967,19.1403018733478
155745,-0.342021465301514,18.8961656386556
155852,-0.342228621244431,19.1891361447787
155961,-0.34305727481842,18.6520223794709
156070,-0.341192841529846,18.7985041202863
156177,-0.341399997472763,18.8473313672247
156291,-0.341192841529846,19.0426403549785
156398,-0.342642962932587,18.9449788366092
156507,-0.340985685586929,19.140287824363
156614,-0.34243580698967,18.8473173182399
156727,-0.342642962932587,18.5543468121167
156837,-0.342021465301514,18.359037824363
156944,-0.34160715341568,18.2125560835476
157053,-0.340571343898773,18.3590448488554
157160,-0.340985685586929,18.4078720957938
157269,-0.341814309358597,18.4566993427323
157384,-0.34305727481842,18.0660743427323
157491,-0.342850118875504,17.6266220957938
157600,-0.342642962932587,17.4801333304861
157706,-0.342021465301514,17.3336515896707
157816,-0.342021465301514,17.1871698488554
157930,-0.342021465301514,17.0895153549785
158036,-0.342228621244431,17.0406881080401
158146,-0.341399997472763,17.2848313672247
158252,-0.34160715341568,17.0895153549785
158362,-0.34077849984169,17.4313131080401
158477,-0.341814309358597,17.4313131080401
158582,-0.341399997472763,17.5777948488554
158692,-0.340571343898773,17.6266220957938
158798,-0.341399997472763,17.5777948488554
158908,-0.342021465301514,17.528967601917
159023,-0.342642962932587,17.138342601917
159128,-0.341814309358597,16.9430336141632
159238,-0.341399997472763,0
159344,-0.342228621244431,68.9452563030499
159454,-0.341814309358597,68.1640063030499
159565,-0.341399997472763,68.3593188030499
159678,-0.34160715341568,68.3593188030499
159784,-0.341399997472763,67.9686938030499
159890,-0.34160715341568,68.749971901525
160000,-0.341399997472763,68.749971901525
160114,-0.342228621244431,67.3827563030499
160222,-0.341399997472763,67.7733813030499
160332,-0.342021465301514,66.9921313030499
160436,-0.34160715341568,67.1874438030499
160546,-0.340571343898773,34.2767133018037
160660,-0.34077849984169,34.8626543140499
160766,-0.342228621244431,34.2767273507885
160880,-0.341399997472763,34.4720363385423
160982,-0.341192841529846,34.9603088079268
161092,-0.341399997472763,34.9603088079268
161206,-0.342228621244431,34.764999820173
161312,-0.341814309358597,34.6673453262961
161423,-0.341192841529846,34.4720222895574
161530,-0.34160715341568,34.7649857711881
161637,-0.341192841529846,35.2532582405726
161751,-0.342021465301514,34.6673172283263
161858,-0.341399997472763,34.2766852038339
161967,-0.342228621244431,34.0813762160801
162075,-0.34243580698967,41.3196720001279
162183,-0.342850118875504,51.7754706524724
162297,-0.34160715341568,51.9175123916142
162404,-0.34305727481842,55.2081428926799
162513,-0.341399997472763,54.8826204983576
162621,-0.341399997472763,54.9477231040353
162729,-0.340985685586929,55.403450709713
162843,-0.340985685586929,55.5336559210684
162950,-0.341399997472763,55.2732361324238
163059,-0.341814309358597,55.012825709713
163166,-0.34160715341568,54.8175178926799
163275,-0.341399997472763,55.012825709713
163389,-0.34160715341568,54.9477231040353
163496,-0.340985685586929,55.1430309210684
163605,-0.34160715341568,54.9477231040353
163712,-0.340985685586929,55.0779283153907
163821,-0.340985685586929,55.2732361324238
163935,-0.341814309358597,55.2732361324238
164042,-0.340364187955856,51.6225083688375
164151,-0.34160715341568,51.5624135450672
164258,-0.341399997472763,51.4422238975267
164367,-0.34160715341568,51.5624135450672
164481,-0.342228621244431,51.502318721297
164588,-0.340985685586929,51.502318721297
164697,-0.34305727481842,51.2018359569524
164804,-0.342642962932587,50.9013531926078
164913,-0.341192841529846,50.9013531926078
165030,-0.340985685586929,51.2619221352293
165134,-0.34160715341568,51.3821117827699
165241,-0.340985685586929,51.6825859016212
165350,-0.341399997472763,51.6825859016212
165464,-0.34160715341568,51.862870372932
165573,-0.340985685586929,51.9830600204725
165680,-0.341814309358597,51.8027755491617
165787,-0.341399997472763,51.862870372932
165896,-0.341399997472763,51.7426807253915
166010,-0.34160715341568,51.7426807253915
166117,-0.341399997472763,51.5623876085874
166230,-0.34160715341568,51.6825772561279
166333,-0.340571343898773,52.1633444917833
166442,-0.342021465301514,52.1032496680131
166556,-0.34243580698967,52.0431461987495
166663,-0.34160715341568,52.2234306700603
166773,-0.34160715341568,52.16333584629
166880,-0.34160715341568,52.1032410225198
166988,-0.341192841529846,52.2234306700603
167102,-0.341192841529846,52.6441030819454
167209,-0.34077849984169,52.8243961987495
167318,-0.341814309358597,52.704206551209
167425,-0.34160715341568,52.4638186106346
167534,-0.342642962932587,52.3436203176008
167648,-0.342228621244431,52.0431461987495
167755,-0.340985685586929,52.1032410225198
167864,-0.34305727481842,51.9830513749792
167971,-0.340157032012939,52.4638186106346
168081,-0.34160715341568,52.4638186106346
168194,-0.34160715341568,52.4037237868644
168301,-0.34243580698967,52.0431461987495
168410,-0.342228621244431,51.5022841393238
168517,-0.34160715341568,51.4421893155536
168627,-0.341399997472763,51.5022841393238
168740,-0.342021465301514,51.2018100204725
168847,-0.34160715341568,50.6008531372766
168956,-0.341399997472763,51.0215255491617
169063,-0.341192841529846,51.2018100204725
169172,-0.340985685586929,51.3820944917833
169286,-0.340364187955856,51.8628617274387
169393,-0.342021465301514,52.1032496680131
169502,-0.340571343898773,52.5239220798982
169609,-0.341399997472763,52.8244048442428
169718,-0.342642962932587,52.6441117274387
169836,-0.341814309358597,52.7643013749792
169939,-0.34160715341568,53.1849737868644
170048,-0.342228621244431,52.8844996680131
170155,-0.34160715341568,52.8244048442428
170264,-0.34160715341568,52.7042151967023
170379,-0.341192841529846,53.1248876085874
170486,-0.342228621244431,52.7643186659658
170594,-0.341399997472763,53.0648014303104
170701,-0.342228621244431,53.1849997233442
170810,-0.340985685586929,53.4854738421955
170919,-0.340364187955856,53.8460514303104
171031,-0.34160715341568,53.5455686659658
171140,-0.340364187955856,53.7258617827699
171247,-0.34243580698967,53.5455686659658
171356,-0.340571343898773,54.2667238421955
171470,-0.34160715341568,54.6273014303104
171577,-0.341399997472763,54.9878790184253
171686,-0.342642962932587,54.8075859016212
171793,-0.34160715341568,54.9277755491617
171902,-0.341814309358597,54.987870372932
172016,-0.34305727481842,54.7474824323577
172123,-0.341399997472763,54.7474824323577
172236,-0.341814309358597,54.6873876085874
172339,-0.342228621244431,54.2667151967023
172448,-0.342021465301514,54.206620372932
172562,-0.342850118875504,53.7859479610469
172669,-0.34077849984169,53.7258531372766
172779,-0.342021465301514,53.5455686659658
172886,-0.340571343898773,53.9662410778509
172995,-0.34077849984169,54.5071117827699
173108,-0.340571343898773,54.8676893708847
173215,-0.342228621244431,54.6273100758037
173324,-0.341814309358597,54.7474997233442
173431,-0.342228621244431,54.6273100758037
173540,-0.34305727481842,54.1465428401483
173654,-0.34160715341568,54.1465428401483
173760,-0.34160715341568,54.086448016378
173870,-0.340364187955856,54.4470256044929
173977,-0.341814309358597,54.3268359569524
174086,-0.341814309358597,54.4470256044929
174200,-0.34077849984169,54.627318721297
174306,-0.342228621244431,54.5672238975267
174416,-0.340985685586929,54.7475083688375
174522,-0.341814309358597,54.3869307807226
174635,-0.34160715341568,54.1465428401483
174746,-0.340985685586929,54.5071117827699
174853,-0.341399997472763,54.5071117827699
174963,-0.341399997472763,54.4470169589996
175069,-0.341814309358597,54.3268273114591
175180,-0.341399997472763,54.5672066065401
175293,-0.342021465301514,54.5071117827699
175399,-0.341192841529846,54.5071117827699
175509,-0.34160715341568,54.5071117827699
175615,-0.34160715341568,54.3869221352293
175725,-0.341192841529846,54.6273014303104
175839,-0.341192841529846,54.6873962540807
175945,-0.34160715341568,54.8676807253915
176055,-0.340571343898773,55.4085514303104
176161,-0.342021465301514,55.6489393708847
176271,-0.342021465301514,55.5287497233442
176388,-0.341814309358597,55.8893273114591
176491,-0.34160715341568,55.8292324876888
176601,-0.342228621244431,55.5888531926078
176707,-0.340364187955856,55.7691463094118
176817,-0.341814309358597,55.5287670143308
176932,-0.342228621244431,55.2883877192497
177038,-0.34243580698967,55.1080946024456
177147,-0.342850118875504,54.7475170143308
177253,-0.341814309358597,54.6273273667902
177362,-0.342642962932587,54.3268446024456
177478,-0.341192841529846,54.2667497786754
177587,-0.342021465301514,54.1465601311348
177692,-0.340985685586929,54.1465601311348
177799,-0.340985685586929,54.1465601311348
177908,-0.34243580698967,53.9662670143308
178018,-0.340985685586929,53.7859738975267
178130,-0.342021465301514,53.6657842499862
178238,-0.341192841529846,53.7258790737564
178345,-0.34077849984169,53.9662670143308
178454,-0.34160715341568,54.1465514856416
178568,-0.34160715341568,53.9662670143308
178675,-0.34243580698967,54.1465514856416
178787,-0.342228621244431,54.2667497786754
178891,-0.341192841529846,54.2667497786754
179000,-0.340364187955856,54.4470428954794
179114,-0.341192841529846,54.56723254302
179221,-0.342021465301514,54.2667584241687
179330,-0.340571343898773,54.507146364743
179437,-0.343264430761337,54.0263791290876
179546,-0.34243580698967,53.6057067172025
179660,-0.340985685586929,53.8460860122835
179767,-0.34243580698967,53.5456032479389
179878,-0.340985685586929,53.6657928954794
179987,-0.34243580698967,53.4254049549051
180092,-0.34243580698967,53.1249221905605
180206,-0.341399997472763,53.1850170143308
180313,-0.340985685586929,53.064818721297
180422,-0.341399997472763,53.2451031926078
180530,-0.340985685586929,53.6657756044929
180638,-0.342642962932587,53.3652928401483
180752,-0.34160715341568,53.3652928401483
180859,-0.341192841529846,53.4854824876888
180968,-0.341814309358597,53.305198016378
181075,-0.340985685586929,53.3652928401483
181188,-0.340985685586929,53.3051893708847
181298,-0.340571343898773,53.6657669589996
181405,-0.34243580698967,53.4253790184253
181514,-0.342021465301514,53.6056721352293
181621,-0.342021465301514,53.6657669589996
181732,-0.34243580698967,53.2450945471145
181844,-0.341192841529846,53.7859566065401
181951,-0.342642962932587,53.0648014303104
182060,-0.341399997472763,53.1248962540807
182167,-0.342228621244431,52.9446117827699
182278,-0.342228621244431,53.0047152520334
182390,-0.340985685586929,53.365284194655
182497,-0.342021465301514,53.2450945471145
182606,-0.341399997472763,53.2450945471145
182713,-0.34160715341568,53.365284194655
182822,-0.340157032012939,53.7859566065401
182937,-0.343264430761337,53.2450945471145
183043,-0.340985685586929,53.3051893708847
183154,-0.34077849984169,53.3652928401483
183259,-0.34243580698967,52.7643273114591
183368,-0.342021465301514,52.7643273114591
183486,-0.34305727481842,52.0431721352293
183589,-0.340571343898773,52.2835600758037
183698,-0.341814309358597,52.523948016378
183805,-0.341399997472763,52.6441376639186
183914,-0.342228621244431,52.4638531926078
184028,-0.341192841529846,52.7643273114591
184136,-0.341814309358597,52.7042324876888
184244,-0.342228621244431,52.523948016378
184351,-0.342228621244431,52.2234738975267
184460,-0.341399997472763,52.4638531926078
184574,-0.342021465301514,52.283568721297
184682,-0.340571343898773,52.7643359569524
184790,-0.341399997472763,52.6441463094118
184897,-0.34077849984169,52.5239566618713
185006,-0.342228621244431,52.3436721905605
185115,-0.341814309358597,51.9229997786754
185228,-0.341814309358597,52.1032928954794
185337,-0.340985685586929,51.9830946024456
185443,-0.34305727481842,51.5624221905605
185552,-0.343264430761337,51.0215601311348
185666,-0.34160715341568,51.3220428954794
185773,-0.342021465301514,51.2018532479389
185882,-0.34077849984169,51.5023360122835
185989,-0.34160715341568,51.9230084241687
186098,-0.34160715341568,51.8629136003984
186212,-0.341814309358597,51.8629136003984
186319,-0.341814309358597,51.9831032479389
186430,-0.34243580698967,51.8629049549051
186537,-0.34160715341568,52.22348254302
186644,-0.340985685586929,52.1633790737564
186758,-0.34243580698967,52.0431807807226
186865,-0.340985685586929,51.9229824876888
186974,-0.340985685586929,51.8628790184253
187082,-0.342228621244431,51.3821117827699
187190,-0.34160715341568,51.5623962540807
187304,-0.34077849984169,51.8628790184253
187411,-0.341814309358597,51.9830686659658
187520,-0.340571343898773,52.7042238421955
187628,-0.342228621244431,52.5239393708847
187736,-0.34243580698967,52.2835514303104
187850,-0.34160715341568,51.9229738421955
187954,-0.340157032012939,52.4037410778509
188066,-0.340364187955856,52.8244134897361
188173,-0.342850118875504,52.2234479610469
188282,-0.341814309358597,52.3436376085874
188396,-0.342021465301514,52.0431634897361
188503,-0.34077849984169,52.3436462540807
188612,-0.34160715341568,52.3436462540807
188719,-0.341814309358597,52.1032669589996
188828,-0.342642962932587,51.7426893708847
188942,-0.34243580698967,51.4422066065401
189049,-0.34160715341568,51.5023014303104
189158,-0.34243580698967,51.2018186659658
189265,-0.341192841529846,51.4421979610469
189374,-0.340985685586929,51.5022927848171
189488,-0.34077849984169,51.7426807253915
189595,-0.34077849984169,51.9830686659658
189704,-0.340985685586929,52.0431634897361
189811,-0.340985685586929,52.1032583135063
189920,-0.342228621244431,51.9229738421955
190037,-0.340985685586929,51.8027755491617
190141,-0.34243580698967,51.6825772561279
190250,-0.341192841529846,51.922956551209
190357,-0.339949876070023,52.4638186106346
190466,-0.34160715341568,52.4638186106346
190580,-0.341814309358597,52.5840082581752
190687,-0.34243580698967,51.983042729486
190796,-0.341192841529846,52.1633272007968
190903,-0.341814309358597,52.2835168483373
191012,-0.34077849984169,52.764292729486
191128,-0.34160715341568,53.1248703176008
191237,-0.34243580698967,52.9445772007968
191342,-0.34160715341568,53.2450599651414
191449,-0.34243580698967,52.8844823770265
191558,-0.341192841529846,53.1248616721076
191672,-0.341192841529846,53.0647668483373
191780,-0.341192841529846,53.004672024567
191888,-0.34243580698967,53.004672024567
191995,-0.341192841529846,52.9445772007968
192104,-0.340985685586929,53.2450513196481
192213,-0.341192841529846,53.2450513196481
192326,-0.34160715341568,53.0046633790738
192438,-0.34077849984169,53.2450513196481
192542,-0.341814309358597,53.1849564958778
192651,-0.34243580698967,53.1849564958778
192765,-0.34077849984169,53.605628907763
192872,-0.342642962932587,53.1849564958778
192981,-0.342021465301514,52.7041892602224
193088,-0.342642962932587,52.2835168483373
193197,-0.340985685586929,52.5839909671886
193311,-0.341192841529846,52.4036978503846
193417,-0.342021465301514,52.7642754384994
193529,-0.342021465301514,52.8844737315332
193633,-0.340571343898773,53.004672024567
193743,-0.341192841529846,53.3652496126819
193857,-0.34243580698967,52.9445772007968
193963,-0.342642962932587,52.8844823770265
194073,-0.34160715341568,53.1248703176008
194181,-0.34160715341568,53.0647754938306
194289,-0.34160715341568,52.8844910225198
194403,-0.341192841529846,52.94458584629
194509,-0.340985685586929,52.94458584629
194619,-0.340985685586929,53.4253530819454
194725,-0.34160715341568,53.4253530819454
194835,-0.341399997472763,53.3652582581752
194950,-0.339949876070023,53.9061203176008
195056,-0.341399997472763,53.7859306700603
195165,-0.341399997472763,53.6657410225198
195271,-0.34160715341568,53.3652582581752
195381,-0.342021465301514,53.485456551209
195495,-0.341814309358597,53.5455513749792
195602,-0.342850118875504,53.3051634344049
195711,-0.340364187955856,53.9061289630941
195817,-0.341192841529846,53.9061289630941
195927,-0.34160715341568,54.2066117274387
196041,-0.342850118875504,53.7859393155536
196148,-0.341192841529846,54.0864134344049
196257,-0.34305727481842,53.8460254938306
196363,-0.341814309358597,53.6056461987495
196477,-0.34243580698967,53.4854479057157
196584,-0.342228621244431,53.2450686106346
196693,-0.341192841529846,53.3652582581752
196801,-0.341399997472763,53.0046806700603
196909,-0.341399997472763,53.545542729486
197023,-0.342021465301514,53.2450686106346
197130,-0.340364187955856,53.3652582581752
197239,-0.342021465301514,53.485456551209
197346,-0.340985685586929,53.7859306700603
197459,-0.342021465301514,54.0864134344049
197569,-0.340985685586929,53.9662151413711
197676,-0.34160715341568,54.0263099651414
197785,-0.340571343898773,54.2666979057157
197892,-0.342228621244431,54.2666979057157
198001,-0.34243580698967,53.9061203176008
198115,-0.342228621244431,53.7859306700603
198222,-0.340985685586929,54.1464996126819
198331,-0.34243580698967,54.0863961434184
198438,-0.341399997472763,54.0863961434184
198549,-0.34243580698967,53.9661978503846
198661,-0.340985685586929,53.8459995573507
198768,-0.340985685586929,53.9661892048913
198877,-0.342228621244431,53.5455167930061
198984,-0.34077849984169,53.9661892048913
199093,-0.341192841529846,54.1464736762021
199208,-0.34160715341568,54.2065684999723
199312,-0.341399997472763,54.0863788524318
199423,-0.34160715341568,54.5070512643169
199530,-0.34243580698967,54.747430559398
199639,-0.341399997472763,54.8075253831683
199753,-0.342850118875504,54.5671374425939
199860,-0.340157032012939,54.7474219139047
199967,-0.340985685586929,54.9277063852155
200076,-0.342228621244431,54.7474219139047
200185,-0.340571343898773,55.1079995020196
200299,-0.344507396221161,54.3267495020196
200408,-0.341192841529846,54.6873270901345
200515,-0.342228621244431,54.5070426188237
200622,-0.342642962932587,54.0262753831683
200731,-0.340364187955856,54.6272409118575
200845,-0.342642962932587,54.1464736762021
200953,-0.341814309358597,53.906094381121
201061,-0.342021465301514,53.9661892048913
201168,-0.341192841529846,54.0863788524318
201277,-0.340571343898773,54.1464736762021
201391,-0.341814309358597,54.1464736762021
201499,-0.341814309358597,53.7858960880872
201607,-0.340364187955856,54.3267581475129
201714,-0.343264430761337,54.0863788524318
201823,-0.342642962932587,53.7858960880872
201937,-0.342021465301514,53.2450340286615
202044,-0.341399997472763,52.9445512643169
202153,-0.342021465301514,53.1849392048913
202260,-0.340364187955856,53.6056116167764
202369,-0.34305727481842,53.3051288524318
202483,-0.342228621244431,52.8844564405467
202590,-0.341192841529846,53.0046460880872
202699,-0.342642962932587,52.7642581475129
202806,-0.340364187955856,53.4253184999723
202915,-0.341192841529846,53.7858960880872
203029,-0.34243580698967,53.5455081475129
203136,-0.342021465301514,53.6657064405467
203245,-0.34305727481842,53.124844381121
203354,-0.33932837843895,53.6056202622697
203461,-0.34160715341568,53.3652323216953
203575,-0.342850118875504,52.7642667930061
203682,-0.342021465301514,52.4637926741548
203791,-0.341814309358597,52.2234133790738
203898,-0.342228621244431,52.2234133790738
204011,-0.34077849984169,52.2835168483373
204121,-0.340985685586929,52.7041892602224
204228,-0.34160715341568,52.5839996126819
204337,-0.34077849984169,52.3436203176008
204444,-0.342021465301514,52.2234306700603
204554,-0.342021465301514,52.16333584629
204667,-0.342228621244431,52.2234393155536
204774,-0.342021465301514,51.9830600204725
204883,-0.341192841529846,52.1633444917833
204990,-0.341192841529846,52.0431461987495
205099,-0.341814309358597,51.9830513749792
205213,-0.341814309358597,52.1633444917833
205320,-0.341399997472763,52.2234393155536
205429,-0.342228621244431,52.2835427848171
205536,-0.34243580698967,51.9229651967023
205645,-0.341814309358597,51.7426807253915
205760,-0.340985685586929,51.8027755491617
205866,-0.343264430761337,51.5623962540807
205975,-0.34243580698967,51.2018186659658
206082,-0.342228621244431,50.8412497233442
206191,-0.341399997472763,50.781154899574
206306,-0.340985685586929,50.9614393708847
206411,-0.341192841529846,50.8412410778509
206521,-0.341399997472763,50.9614307253915
206628,-0.341399997472763,51.2619134897361
206737,-0.34160715341568,51.0215255491617
206846,-0.342642962932587,51.0215255491617
206962,-0.341814309358597,51.081620372932
207067,-0.341192841529846,51.5022927848171
207174,-0.342228621244431,51.1417238421955
207283,-0.343264430761337,50.5407669589996
207397,-0.34243580698967,50.4205686659658
207506,-0.34077849984169,50.7811462540807
207613,-0.34160715341568,50.4806634897361
207720,-0.342021465301514,50.240284194655
207829,-0.34243580698967,50.240284194655
207943,-0.34160715341568,50.5407669589996
208052,-0.341399997472763,50.6008617827699
208160,-0.342228621244431,50.4205773114591
208266,-0.341814309358597,50.3604824876888
208375,-0.342642962932587,49.9398100758037
208489,-0.34077849984169,49.9999135450672
208596,-0.340985685586929,49.9999135450672
208706,-0.34077849984169,50.2403014856416
208812,-0.341399997472763,50.2403014856416
208921,-0.343471586704254,49.2186721905605
209035,-0.34243580698967,48.9181894262159
209141,-0.34077849984169,49.09848254302
209252,-0.342642962932587,48.7979997786754
209360,-0.340985685586929,49.0984738975267
209467,-0.341399997472763,49.2186635450672
209581,-0.34243580698967,49.3388531926078
209687,-0.33932837843895,49.6393359569524
209797,-0.342228621244431,49.338861838101
209905,-0.341814309358597,49.2787670143308
210014,-0.34160715341568,49.6393446024456
210128,-0.340985685586929,49.6994394262159
210234,-0.341192841529846,50.2403014856416
210344,-0.343264430761337,49.8196290737564
210450,-0.341814309358597,49.9999221905605
210563,-0.342642962932587,49.8797238975267
210674,-0.342642962932587,49.4590514856416
210780,-0.342850118875504,49.0383790737564
210890,-0.341814309358597,48.9181894262159
210996,-0.341814309358597,48.9782842499862
211108,-0.341399997472763,48.6778014856416
211220,-0.341399997472763,48.8580859569524
211326,-0.342642962932587,48.377318721297
211436,-0.341192841529846,48.617698016378
211542,-0.34077849984169,48.6778014856416
211652,-0.342642962932587,48.377318721297
211766,-0.34160715341568,48.0768359569524
211872,-0.341192841529846,48.3773100758037
211982,-0.342021465301514,48.4975083688375
212088,-0.341814309358597,48.617698016378
212198,-0.342228621244431,48.2571290737564
212312,-0.342021465301514,48.3773273667902
212419,-0.342021465301514,48.1970428954794
212528,-0.340571343898773,48.7379136003984
212634,-0.342642962932587,48.257146364743
212744,-0.339121222496033,48.7980170696619
212856,-0.342850118875504,48.6177239528579
212965,-0.34160715341568,48.3773360122835
213073,-0.342021465301514,48.1369567172025
213180,-0.341192841529846,48.257146364743
213289,-0.34160715341568,48.1970515409727
213403,-0.342642962932587,47.8965687766281
213510,-0.340364187955856,48.4975343053173
213619,-0.340985685586929,48.6177239528579
213726,-0.34077849984169,49.2186894815471
213835,-0.343471586704254,48.2571550102363
213949,-0.34160715341568,48.0768705389255
214056,-0.342228621244431,48.0768705389255
214169,-0.340571343898773,48.0768705389255
214272,-0.341192841529846,49.0384050102363
214381,-0.342021465301514,48.7980257151552
214495,-0.340364187955856,49.3388877745809
214602,-0.342642962932587,49.3388877745809
214712,-0.340571343898773,49.2787929508106
214820,-0.342021465301514,49.4590860676147
214927,-0.342228621244431,49.3388964200742
215041,-0.34160715341568,49.4590860676147
215148,-0.341399997472763,49.3989912438444
215257,-0.341814309358597,49.0384136557295
215364,-0.341814309358597,49.0384136557295
215473,-0.342228621244431,48.918224008189
215587,-0.341399997472763,48.6177412438444
215694,-0.341814309358597,49.0384136557295
215803,-0.340985685586929,49.5191808913849
215910,-0.342850118875504,49.2787929508106
216019,-0.34160715341568,49.2186981270403
216133,-0.341399997472763,49.3989825983511
216240,-0.34077849984169,49.2787929508106
216349,-0.340985685586929,49.8797498340065
216456,-0.34160715341568,50.0600343053173
216569,-0.342021465301514,49.8196550102363
216679,-0.341814309358597,50.0600429508106
216786,-0.342021465301514,49.5792757151552
216895,-0.341192841529846,49.5792757151552
217002,-0.341399997472763,49.8797584794998
217112,-0.342642962932587,49.6994653626957
217225,-0.341814309358597,50.0600429508106
217332,-0.339949876070023,49.8797498340065
217441,-0.341399997472763,49.9398446577768
217548,-0.342228621244431,50.1201377745809
217657,-0.341814309358597,50.1802325983511
217771,-0.340985685586929,50.4206118934322
217878,-0.341814309358597,50.5408015409727
217987,-0.342021465301514,50.1802239528579
218094,-0.34077849984169,50.2403274221214
218203,-0.341399997472763,50.3004222458917
218319,-0.341192841529846,50.1802239528579
218424,-0.342228621244431,50.1201291290876
218533,-0.342228621244431,50.0600343053173
218640,-0.342642962932587,49.9398360122835
218749,-0.34305727481842,49.6393532479389
218864,-0.341399997472763,49.5792584241687
218970,-0.34077849984169,49.6994567172025
219079,-0.342021465301514,49.6393618934322
219186,-0.341399997472763,49.7595515409727
219295,-0.342642962932587,49.3989739528579
219410,-0.341399997472763,49.6393532479389
219520,-0.341814309358597,49.819646364743
219625,-0.340985685586929,50.060025659824
219732,-0.339949876070023,50.3605084241687
219841,-0.34077849984169,51.0816636003984
219955,-0.341399997472763,51.382146364743
220062,-0.34077849984169,51.8028187766281
220171,-0.341192841529846,51.8629136003984
220278,-0.340985685586929,51.8629136003984
220387,-0.341814309358597,51.6826291290876
220501,-0.340985685586929,51.8028187766281
220606,-0.34305727481842,51.3220515409727
220719,-0.341399997472763,51.382146364743
220824,-0.341399997472763,51.7427239528579
220933,-0.341399997472763,51.8629136003984
221047,-0.341399997472763,51.8028187766281
221154,-0.34243580698967,51.7427153073646
221264,-0.340571343898773,52.5239653073646
221370,-0.341399997472763,52.8244480717092
221479,-0.342228621244431,52.403775659824
221593,-0.342642962932587,52.1032928954794
221700,-0.34077849984169,52.4638704835943
221810,-0.342642962932587,52.403775659824
221918,-0.342642962932587,52.1032928954794
222025,-0.34160715341568,52.0431980717092
222139,-0.342228621244431,52.0431980717092
222246,-0.341192841529846,52.22348254302
222355,-0.342021465301514,52.403775659824
222462,-0.342642962932587,51.8629049549051
222571,-0.34160715341568,51.6826204835943
222685,-0.342021465301514,51.3220428954794
222792,-0.34160715341568,51.2619480717092
222901,-0.340985685586929,51.9830946024456
223010,-0.34077849984169,52.4638704835943
223122,-0.342021465301514,52.1032928954794
223231,-0.341814309358597,52.3436808360538
223338,-0.34243580698967,51.9230084241687
223447,-0.340571343898773,52.163396364743
223554,-0.341814309358597,52.3436894815471
223664,-0.342228621244431,51.5023446577768
223777,-0.342228621244431,51.5023446577768
223889,-0.342850118875504,51.2018618934322
223993,-0.34077849984169,51.4422498340065
224100,-0.342642962932587,50.9614825983511
224210,-0.340985685586929,51.0215774221214
224323,-0.341814309358597,51.4422498340065
224430,-0.34243580698967,51.2619567172025
224539,-0.34077849984169,51.8028274221214
224646,-0.342021465301514,51.9831205389255
224755,-0.34243580698967,52.103310186466
224869,-0.34243580698967,51.9230170696619
224976,-0.341399997472763,52.0432067172025
225085,-0.342642962932587,51.6826291290876
225192,-0.341814309358597,51.5624394815471
225301,-0.34243580698967,51.6225343053173
225415,-0.341192841529846,51.6225343053173
225522,-0.34160715341568,51.382146364743
225631,-0.340985685586929,51.8629136003984
225738,-0.34160715341568,51.8629136003984
225847,-0.340571343898773,52.0432067172025
225961,-0.341192841529846,52.2835860122835
226070,-0.342021465301514,52.2234911885133
226177,-0.340985685586929,52.5840601311348
226284,-0.34160715341568,52.7042497786754
226393,-0.34243580698967,52.5840514856416
226507,-0.340985685586929,52.4638531926078
226615,-0.341814309358597,52.7042411331821
226723,-0.342642962932587,51.6826031926078
226830,-0.341192841529846,52.1633704282632
226939,-0.340985685586929,52.343654899574
227053,-0.34160715341568,52.4638445471145
227163,-0.34160715341568,52.343654899574
227271,-0.342228621244431,52.1633704282632
227377,-0.342228621244431,52.283568721297
227486,-0.34243580698967,51.6826031926078
227600,-0.342021465301514,51.3821290737564
227704,-0.340571343898773,51.4422238975267
227814,-0.341399997472763,52.0431807807226
227923,-0.342021465301514,51.9229911331821
228037,-0.341192841529846,52.2234652520334
228143,-0.341814309358597,51.8628876639186
228253,-0.342021465301514,51.6225083688375
228359,-0.34160715341568,51.742698016378
228473,-0.342642962932587,51.0816376639186
228582,-0.340157032012939,51.8027928401483
228689,-0.342642962932587,51.2018273114591
228798,-0.341399997472763,51.3821117827699
228905,-0.341399997472763,51.6224910778509
229014,-0.341399997472763,51.6825859016212
229128,-0.340571343898773,51.9229738421955
229235,-0.342228621244431,51.802784194655
229344,-0.342642962932587,51.5623962540807
229451,-0.341814309358597,51.6825859016212
229560,-0.341814309358597,51.5623962540807
229674,-0.341814309358597,51.5623962540807
229781,-0.34243580698967,51.1417238421955
229890,-0.340157032012939,51.9229738421955
229997,-0.342228621244431,51.7426893708847
230106,-0.341399997472763,51.7426893708847
230222,-0.343264430761337,51.021534194655
230327,-0.34160715341568,50.8412497233442
230436,-0.341399997472763,50.9013445471145
230543,-0.34160715341568,51.021534194655
230652,-0.34243580698967,50.8412410778509
230766,-0.341814309358597,50.9013359016212
230874,-0.342021465301514,50.6609566065401
230980,-0.342021465301514,50.4806721352293
231089,-0.342228621244431,50.6008704282632
231198,-0.342850118875504,50.3003876639186
231314,-0.34305727481842,49.398948016378
231422,-0.342021465301514,49.2186635450672
231528,-0.34160715341568,49.398948016378
231635,-0.34077849984169,49.6994307807226
231744,-0.341814309358597,49.4590514856416
231858,-0.342228621244431,49.338861838101
231966,-0.34160715341568,49.4590514856416
232074,-0.34305727481842,48.7979911331821
232181,-0.34160715341568,48.7378963094118
232290,-0.342021465301514,48.4975170143308
232404,-0.342021465301514,48.557611838101
232511,-0.342228621244431,48.557611838101
232623,-0.34160715341568,48.8580946024456
232727,-0.341399997472763,49.338861838101
232836,-0.342228621244431,49.09848254302
232950,-0.341192841529846,48.9782842499862
233057,-0.343471586704254,48.557611838101
233166,-0.342021465301514,48.3773273667902
233273,-0.341814309358597,48.6177153073646
233382,-0.342228621244431,48.3773360122835
233496,-0.34160715341568,48.4374308360538
233603,-0.34077849984169,48.4975343053173
233714,-0.34077849984169,48.2571550102363
233823,-0.342021465301514,47.8965774221214
233928,-0.34160715341568,47.8364825983511
234042,-0.34160715341568,47.5960946577768
234149,-0.34305727481842,47.0552325983511
234258,-0.342228621244431,46.6946636557295
234366,-0.341399997472763,46.8148533032701
234475,-0.342642962932587,46.3340860676147
234588,-0.341814309358597,46.6946636557295
234695,-0.341399997472763,46.6946636557295
234802,-0.34160715341568,46.6345688319593
234911,-0.341192841529846,46.6946636557295
235021,-0.340157032012939,47.0552412438444
235134,-0.341192841529846,47.4158188319593
235241,-0.342228621244431,46.9350515963039
235350,-0.34243580698967,46.6345688319593
235457,-0.342228621244431,46.6345688319593
235568,-0.34243580698967,46.6946636557295
235680,-0.341192841529846,46.5744653626957
235787,-0.342228621244431,46.6946636557295
235896,-0.34305727481842,46.574474008189
236003,-0.341814309358597,46.5143791844188
236112,-0.342642962932587,46.3941808913849
236227,-0.341399997472763,46.3340860676147
236333,-0.342642962932587,46.1537929508106
236442,-0.341192841529846,46.5744653626957
236549,-0.34305727481842,46.1537929508106
236658,-0.342228621244431,46.0936981270403
236772,-0.342021465301514,45.9735084794998
236879,-0.34243580698967,45.5528360676147
236988,-0.342642962932587,45.0119653626957
237095,-0.34243580698967,44.8917670696619
237204,-0.340364187955856,45.3124394815471
237320,-0.34243580698967,45.3124394815471
237428,-0.340157032012939,45.4326291290876
237534,-0.342642962932587,45.1922411885133
237641,-0.341814309358597,45.3124308360538
237750,-0.341399997472763,45.5528101311348
237862,-0.34077849984169,46.153775659824
237973,-0.340985685586929,46.0936721905605
238080,-0.341192841529846,46.5143446024456
238187,-0.340571343898773,46.6345428954794
238296,-0.342021465301514,46.5744480717092
238410,-0.34305727481842,46.3941636003984
238518,-0.340364187955856,46.5143532479389
238627,-0.34160715341568,46.6345428954794
238733,-0.340364187955856,47.2355084241687
238842,-0.34077849984169,47.7162843053173
238956,-0.341814309358597,47.5960946577768
239063,-0.340985685586929,48.0768618934322
239172,-0.34243580698967,47.8965687766281
239279,-0.342228621244431,47.9566722458917
239388,-0.342021465301514,47.7162929508106
239502,-0.341399997472763,47.7763877745809
239609,-0.340571343898773,47.8965860676147
239720,-0.342021465301514,47.7763964200742
239827,-0.34160715341568,47.4759136557295
239934,-0.34243580698967,47.1153360676147
240048,-0.342021465301514,47.1153360676147
240155,-0.342021465301514,46.8148619487634
240264,-0.34160715341568,46.8148619487634
240372,-0.341399997472763,47.115344713108
240480,-0.34160715341568,46.9350602417972
240594,-0.34388592839241,46.334094713108
240701,-0.34160715341568,46.6345774774526
240810,-0.342228621244431,46.3341033586012
240918,-0.34077849984169,46.3942068278648
241028,-0.341814309358597,46.3341120040945
241140,-0.341399997472763,46.3942068278648
241247,-0.341192841529846,46.6946809467161
241356,-0.34160715341568,46.8749654180269
241463,-0.341192841529846,47.2355430061418
241577,-0.34160715341568,47.3557326536823
241686,-0.342850118875504,46.6946723012228
241793,-0.34160715341568,46.6345774774526
241900,-0.34243580698967,46.5143791844188
242009,-0.34077849984169,46.6345774774526
242120,-0.343678742647171,46.0937154180269
242232,-0.339949876070023,46.6946723012228
242339,-0.34243580698967,46.4542843606485
242448,-0.341192841529846,46.8749567725336
242555,-0.34160715341568,46.4542843606485
242664,-0.340157032012939,47.1754395368782
242778,-0.341192841529846,47.2355343606485
242885,-0.341192841529846,47.2956291844188
242994,-0.342850118875504,46.8749567725336
243101,-0.341192841529846,46.6946636557295
243210,-0.34160715341568,46.8749481270403
243328,-0.341399997472763,47.2355257151552
243431,-0.340985685586929,47.4759050102363
243540,-0.342850118875504,47.1754222458917
243647,-0.34077849984169,47.4759050102363
243756,-0.342642962932587,47.415810186466
243870,-0.341192841529846,47.1153274221214
243977,-0.341192841529846,47.4158015409727
244086,-0.342021465301514,47.2355170696619
244193,-0.341814309358597,47.6561894815471
244302,-0.342228621244431,47.4759050102363
244418,-0.341192841529846,47.5359998340065
244522,-0.341814309358597,47.4759050102363
244632,-0.341192841529846,47.8364825983511
244738,-0.342021465301514,47.7763877745809
244849,-0.341399997472763,47.9566722458917
244961,-0.341399997472763,48.1369567172025
245069,-0.340571343898773,48.6177239528579
245179,-0.34305727481842,48.5576291290876
245285,-0.340985685586929,49.1585860122835
245395,-0.342228621244431,49.0984911885133
245509,-0.341814309358597,49.038396364743
245615,-0.341814309358597,48.7379136003984
245725,-0.342021465301514,48.6778187766281
245832,-0.341399997472763,48.9181980717092
245941,-0.34243580698967,48.6778101311348
246055,-0.341192841529846,49.2186721905605
246161,-0.342228621244431,49.0383877192497
246271,-0.342021465301514,49.0383877192497
246377,-0.34160715341568,49.1585773667902
246491,-0.342021465301514,49.2186721905605
246601,-0.34305727481842,48.7979997786754
246707,-0.342228621244431,48.5576204835943
246817,-0.342228621244431,48.5576204835943
246923,-0.341399997472763,48.497525659824
247034,-0.342228621244431,48.8581032479389
247147,-0.34243580698967,48.7379049549051
247253,-0.340985685586929,48.9782842499862
247363,-0.34160715341568,49.158568721297
247469,-0.342228621244431,48.9782842499862
247579,-0.341814309358597,48.6778014856416
247693,-0.342021465301514,48.3172238975267
247799,-0.341192841529846,48.5576031926078
247909,-0.341399997472763,48.617698016378
248015,-0.34160715341568,48.617698016378
248131,-0.342642962932587,48.7378876639185
248240,-0.341814309358597,48.8580773114591
248345,-0.342642962932587,48.4974997233442
248454,-0.341399997472763,48.8580773114591
248561,-0.340985685586929,49.0984566065401
248670,-0.342642962932587,48.7378790184253
248786,-0.34243580698967,48.4974910778509
248891,-0.34077849984169,48.6176893708847
248998,-0.341192841529846,48.3172066065401
249107,-0.341814309358597,48.1369221352293
249216,-0.342021465301514,48.1970169589996
249332,-0.342021465301514,48.3172152520334
249442,-0.341814309358597,48.4374048995739
249546,-0.341192841529846,48.7979824876888
249653,-0.342642962932587,48.3773100758037
249762,-0.342021465301514,48.4374048995739
249876,-0.34243580698967,48.6176893708847
249984,-0.341192841529846,48.7979738421955
250092,-0.341192841529846,49.2186462540807
250199,-0.340157032012939,49.5792238421955
250308,-0.342021465301514,49.7595169589996
250422,-0.34243580698967,49.3989393708847
250529,-0.341192841529846,49.9398014303104
250640,-0.34160715341568,50.1200859016212
250745,-0.342228621244431,50.0599910778509
250854,-0.342850118875504,49.9398014303104
250968,-0.342642962932587,49.9398014303104
251075,-0.340364187955856,50.5407669589996
251186,-0.342021465301514,50.0599997233442
251291,-0.342850118875504,49.9398100758037
251400,-0.341192841529846,49.6393273114591
251514,-0.341399997472763,49.9999048995739
251621,-0.342228621244431,49.8797152520334
251732,-0.342228621244431,49.6393359569524
251841,-0.341399997472763,49.4590428401483
251946,-0.34160715341568,49.2787583688375
252060,-0.340985685586929,49.3388531926078
252167,-0.34243580698967,48.7979824876888
252276,-0.34160715341568,48.9181721352293
252384,-0.341814309358597,49.2787497233442
252492,-0.342850118875504,48.5575945471145
252606,-0.342228621244431,48.3773100758037
252713,-0.341814309358597,47.9566376639185
252822,-0.342021465301514,47.5960600758037
252929,-0.340985685586929,47.8364393708847
253041,-0.342021465301514,47.5359652520334
253152,-0.342021465301514,47.6561635450672
253259,-0.341814309358597,47.7763531926078
253368,-0.34160715341568,47.8965428401483
253475,-0.340985685586929,48.0167324876888
253586,-0.34160715341568,47.7162497233442
253698,-0.341399997472763,47.896534194655
253805,-0.342642962932587,47.5960514303104
253914,-0.34243580698967,47.5960514303104
254021,-0.341814309358597,47.6561462540807
254132,-0.341814309358597,47.7162410778509
254244,-0.342850118875504,47.3556634897361
254351,-0.34077849984169,47.5359566065401
254460,-0.342228621244431,47.3556721352293
254567,-0.340985685586929,48.1970169589996
254676,-0.341814309358597,48.1369221352293
254790,-0.341192841529846,48.4373962540807
254897,-0.34160715341568,48.1970083135063
255006,-0.341399997472763,48.3171979610469
255113,-0.34243580698967,48.0167151967023
255222,-0.34305727481842,47.4758531372766
255336,-0.34305727481842,47.0551807253915
255443,-0.342228621244431,46.7547066065401
255552,-0.341192841529846,46.8748962540807
255659,-0.340985685586929,47.4157583135063
255768,-0.341399997472763,0
255882,-0.341814309358597,9.76461345489858
255991,-0.342642962932587,68.750374637351
256096,-0.340985685586929,52.8326125267493
256205,-0.34160715341568,52.0513625267493
256314,-0.341399997472763,52.5396490451186
256428,-0.34160715341568,52.3443400573648
256536,-0.34243580698967,51.9537080328724
256644,-0.342850118875504,56.1636204243926
256751,-0.341399997472763,56.0768162563939
256860,-0.341399997472763,55.9900120883951
256974,-0.34243580698967,56.1636204243926
257082,-0.34160715341568,55.9900120883951
257191,-0.342021465301514,55.8164037523977
257297,-0.341399997472763,55.8164037523977
257406,-0.34243580698967,55.2087620883951
257520,-0.340985685586929,55.9900120883951
257627,-0.340985685586929,55.9031954323849
257736,-0.34160715341568,56.33722876039
257843,-0.341399997472763,56.2504245923913
257952,-0.341192841529846,56.2504245923913
258066,-0.34243580698967,56.0768037683824
258173,-0.34077849984169,50.8591030145874
258282,-0.342021465301514,50.9372257667741
258391,-0.342642962932587,50.3903552624007
258498,-0.342850118875504,49.9997302624007
258612,-0.342021465301514,49.687239253654
258719,-0.342228621244431,49.6091165014674
258828,-0.339535564184189,31.4454846000647
258936,-0.34077849984169,31.5919733653725
259049,-0.343264430761337,38.6285041360294
259156,-0.34243580698967,38.7587103880275
259265,-0.342228621244431,38.4982978840313
259372,-0.34160715341568,38.6285041360294
259482,-0.341192841529846,38.7587103880275
259595,-0.341192841529846,38.8889166400256
259702,-0.342021465301514,38.8889166400256
259811,-0.34160715341568,38.8455145560262
259918,-0.342642962932587,38.8021124720269
260027,-0.342021465301514,38.6285041360294
260141,-0.341814309358597,38.7153083040281
260247,-0.34243580698967,38.6284978920237
260357,-0.341192841529846,38.7153020600224
260463,-0.342850118875504,38.5416874800192
260573,-0.341192841529846,38.9323124800192
260690,-0.341814309358597,39.0191166480179
260793,-0.342642962932587,38.9323062360134
260903,-0.341399997472763,38.9323062360134
261009,-0.34160715341568,39.0625124880115
261119,-0.34243580698967,39.0625124880115
261234,-0.342228621244431,38.8020999840153
261341,-0.342021465301514,38.7152958160166
261449,-0.340985685586929,38.9757083200128
261555,-0.342642962932587,38.8020937400096
261665,-0.341814309358597,38.845495824009
261779,-0.341814309358597,38.7152895720109
261886,-0.340985685586929,38.8020937400096
261995,-0.342642962932587,38.585077076007
262101,-0.34160715341568,38.8020937400096
262211,-0.341192841529846,38.9322999920077
262326,-0.34243580698967,38.975702076007
262433,-0.342021465301514,38.845495824009
262542,-0.341814309358597,38.6718874880115
262648,-0.342850118875504,38.6284854040121
262758,-0.341399997472763,38.8455020680147
262872,-0.342850118875504,38.4114687400096
262978,-0.340985685586929,38.454870824009
263088,-0.341399997472763,38.5416749920077
263194,-0.34243580698967,38.4548645800032
263304,-0.34243580698967,38.3680541679987
263418,-0.34160715341568,38.4114562519981
263524,-0.341814309358597,38.28125
263634,-0.34160715341568,38.4982666640026
263743,-0.342850118875504,38.3246520839994
263850,-0.342021465301514,38.4114624960038
263964,-0.341814309358597,38.2812562440058
264070,-0.341192841529846,38.2812562440058
264179,-0.34305727481842,37.6736145800032
264286,-0.341814309358597,37.7170166640026
264395,-0.34243580698967,37.7170166640026
264509,-0.341399997472763,37.6736145800032
264616,-0.341814309358597,37.6302124960038
264725,-0.341399997472763,37.8038208320013
264834,-0.341399997472763,38.1076416640026
264943,-0.341192841529846,38.4114624960038
265055,-0.34160715341568,38.1510437480019
265162,-0.342021465301514,38.1510437480019
265271,-0.342228621244431,38.2812562440058
265378,-0.340571343898773,38.4114687400096
265489,-0.342021465301514,38.2812624880115
265601,-0.34305727481842,38.1076479080083
265708,-0.34243580698967,38.0642395800032
265817,-0.341814309358597,37.9774354120045
265924,-0.342021465301514,37.8906312440058
266034,-0.341192841529846,37.8472291600064
266147,-0.342642962932587,37.803827076007
266254,-0.342021465301514,37.7170229080083
266363,-0.342850118875504,37.5000062440058
266470,-0.34243580698967,37.5868104120045
266579,-0.342228621244431,37.5868104120045
266693,-0.34160715341568,37.6302124960038
266800,-0.341192841529846,37.8038208320013
266909,-0.341814309358597,37.6302124960038
267016,-0.34160715341568,37.7170166640026
267125,-0.341814309358597,37.7604187480019
267243,-0.341399997472763,37.8472229160006
267346,-0.342021465301514,37.7604187480019
267455,-0.34243580698967,37.4565979160006
267562,-0.341192841529846,37.5434020839994
267671,-0.341814309358597,37.4565979160006
267786,-0.34077849984169,37.8472291600064
267892,-0.341192841529846,38.1076479080083
268001,-0.341192841529846,38.2378541600064
268108,-0.341814309358597,38.2378541600064
268217,-0.341399997472763,38.5416749920077
268331,-0.34077849984169,38.5416749920077
268438,-0.342850118875504,38.4114624960038
268547,-0.343471586704254,37.8906312440058
268654,-0.338914066553116,38.4982729080083
268763,-0.340364187955856,38.6718874880115
268877,-0.341399997472763,38.7152895720109
268986,-0.34243580698967,38.4982729080083
269093,-0.34243580698967,38.4982729080083
269200,-0.34160715341568,38.8020937400096
269309,-0.342228621244431,38.9757083200128
269423,-0.340364187955856,39.3663333200128
269530,-0.342642962932587,39.0625124880115
269643,-0.341192841529846,39.0191104040121
269746,-0.342642962932587,38.7586916560102
269855,-0.34160715341568,38.8020937400096
269969,-0.340985685586929,39.1493166560102
270076,-0.341814309358597,38.9757083200128
270186,-0.34243580698967,38.8020937400096
270295,-0.341814309358597,38.7152895720109
270401,-0.341814309358597,38.6718874880115
270515,-0.34160715341568,38.8455020680147
270622,-0.341192841529846,39.1927249840153
270731,-0.341814309358597,39.1059208160166
270838,-0.341192841529846,39.149322900016
270947,-0.342642962932587,39.1059208160166
271061,-0.341192841529846,39.1927249840153
271168,-0.34160715341568,39.2795291520141
271277,-0.34243580698967,39.0625124880115
271386,-0.34160715341568,39.2361270680147
271494,-0.341814309358597,39.0625187320173
271607,-0.341399997472763,38.9757145640185
271714,-0.34243580698967,38.8020999840153
271823,-0.342021465301514,38.6718937320173
271930,-0.34160715341568,38.5850895640185
272039,-0.341399997472763,38.8021062280211
272153,-0.34077849984169,38.8021062280211
272260,-0.341399997472763,38.9323124800192
272369,-0.34160715341568,39.1493291440217
272476,-0.34160715341568,39.4097478920237
272587,-0.34077849984169,39.6701666400256
272699,-0.341399997472763,39.843774976023
272806,-0.343264430761337,39.062524976023
272915,-0.340985685586929,39.0191166480179
273022,-0.340364187955856,39.6267583120205
273131,-0.34305727481842,39.4965520600224
273245,-0.34160715341568,39.6267583120205
273352,-0.341399997472763,39.6701603960198
273461,-0.34243580698967,39.4097416480179
273568,-0.341399997472763,39.3663395640185
273677,-0.341399997472763,39.4965458160166
273794,-0.342642962932587,39.2795291520141
273898,-0.342228621244431,39.3663395640185
274007,-0.342021465301514,39.3663395640185
274114,-0.342021465301514,39.3229374800192
274223,-0.341192841529846,39.5833562280211
274339,-0.340571343898773,39.7135687240249
274444,-0.342228621244431,39.8437812200288
274553,-0.34243580698967,39.5833624720269
274660,-0.34077849984169,39.8003791360294
274769,-0.341814309358597,39.9739937160326
274885,-0.342228621244431,39.8003853800352
274994,-0.341192841529846,39.8871895480339
275099,-0.342850118875504,39.8003853800352
275206,-0.340571343898773,40.1476082960358
275315,-0.34243580698967,40.0607978840313
275429,-0.341399997472763,39.9739937160326
275537,-0.34243580698967,40.017395800032
275645,-0.34160715341568,40.0607978840313
275752,-0.341814309358597,40.0607978840313
275861,-0.342228621244431,39.8003853800352
275975,-0.342228621244431,39.8871957920396
276082,-0.342850118875504,39.6267770440377
276193,-0.341399997472763,39.5833749600384
276298,-0.342228621244431,39.6267832880435
276407,-0.341814309358597,39.6701853720428
276521,-0.340364187955856,39.9740062040441
276628,-0.342021465301514,40.1476207840473
276739,-0.341192841529846,40.1910228680467
276844,-0.34243580698967,40.2778270360454
276953,-0.341399997472763,40.1910228680467
277067,-0.34243580698967,39.9740062040441
277174,-0.341399997472763,40.1910228680467
277285,-0.340985685586929,40.494843700048
277394,-0.342021465301514,40.4080395320492
277499,-0.341399997472763,40.494843700048
277613,-0.341399997472763,40.5382457840473
277720,-0.34243580698967,40.625049952046
277827,-0.341814309358597,40.6684520360454
277937,-0.341814309358597,40.6684520360454
278045,-0.342021465301514,40.494843700048
278159,-0.342228621244431,40.6684582800511
278266,-0.342021465301514,40.6250561960518
278375,-0.34077849984169,40.9722853560582
278482,-0.342228621244431,40.7986770200607
278594,-0.341814309358597,40.7986770200607
278705,-0.34305727481842,40.4514541040601
278812,-0.341399997472763,40.4514541040601
278921,-0.341814309358597,40.321247852062
279028,-0.341192841529846,40.4080520200607
279137,-0.341399997472763,40.5382582720588
279251,-0.341399997472763,40.7118666080563
279358,-0.342642962932587,40.2778332800511
279467,-0.34243580698967,40.1910228680467
279579,-0.34243580698967,40.3212291200448
279685,-0.342021465301514,40.4080395320492
279796,-0.34305727481842,40.1476207840473
279904,-0.34077849984169,40.4080395320492
280014,-0.341192841529846,40.4080395320492
280120,-0.34077849984169,40.798670776055
280230,-0.34243580698967,40.7118603640505
280344,-0.342642962932587,40.7552624480499
280450,-0.34077849984169,41.1024916080563
280560,-0.342228621244431,41.1024916080563
280666,-0.340571343898773,41.3195082720588
280776,-0.341814309358597,41.1893020200607
280890,-0.342850118875504,40.9722853560582
280996,-0.341192841529846,41.0590895240569
281106,-0.341399997472763,41.1458936920556
281212,-0.34160715341568,41.1024916080563
281322,-0.34160715341568,41.189295776055
281438,-0.341814309358597,41.3195082720588
281545,-0.342850118875504,40.9722853560582
281652,-0.342021465301514,40.9288832720588
281758,-0.341192841529846,40.8420728600543
281868,-0.34243580698967,40.5816541120524
281980,-0.34243580698967,40.3212353640505
282090,-0.342228621244431,40.2344311960518
282198,-0.341192841529846,40.2778332800511
282304,-0.342228621244431,39.9740124480499
282414,-0.34305727481842,39.9306103640505
282526,-0.340571343898773,40.5382520280531
282636,-0.342021465301514,39.8872082800511
282744,-0.341399997472763,39.6701916160486
282850,-0.342642962932587,39.4097728680467
282960,-0.34243580698967,39.4097728680467
283072,-0.342228621244431,39.4531811960518
283180,-0.341814309358597,39.4097791120524
283295,-0.341399997472763,39.5833874480499
283396,-0.342642962932587,39.1059520360454
283506,-0.342021465301514,39.2361645320492
283618,-0.340571343898773,39.3663770280531
283726,-0.342021465301514,39.4965895240569
283836,-0.342021465301514,39.4097853560582
283945,-0.34243580698967,39.1059645240569
284051,-0.342228621244431,39.0191603560582
284163,-0.342021465301514,39.1059707680627
284272,-0.34243580698967,38.9757582720588
284381,-0.342228621244431,38.8889541040601
284490,-0.340985685586929,39.0191603560582
284597,-0.342228621244431,38.8021499360614
284709,-0.341814309358597,38.8021499360614
284818,-0.342642962932587,38.4983291040601
284927,-0.341399997472763,38.758747852062
285034,-0.34243580698967,38.4983291040601
285147,-0.34160715341568,38.4983291040601
285255,-0.34160715341568,38.6719436840633
285364,-0.34243580698967,38.4983291040601
285473,-0.340985685586929,38.6719374400575
285580,-0.34243580698967,38.454920776055
285690,-0.342228621244431,38.4983291040601
285801,-0.34160715341568,38.5851332720588
285910,-0.342642962932587,38.3681166080563
286019,-0.341399997472763,38.3681166080563
286126,-0.342228621244431,38.064295776055
286235,-0.341399997472763,38.064295776055
286347,-0.341399997472763,38.1076978600543
286456,-0.341192841529846,38.1945020280531
286565,-0.342021465301514,37.9340832800511
286672,-0.342021465301514,37.8038770280531
286781,-0.342228621244431,38.0208936920556
286896,-0.34160715341568,37.8906874400575
287002,-0.341192841529846,37.7170728600543
287111,-0.34160715341568,38.0208936920556
287218,-0.341192841529846,38.1076978600543
287327,-0.34243580698967,37.8906811960518
287440,-0.341399997472763,38.1076978600543
287548,-0.341192841529846,38.1510999440537
287657,-0.342850118875504,37.8472791120524
287764,-0.341814309358597,38.0208936920556
287873,-0.341814309358597,38.1076978600543
287985,-0.341399997472763,38.2379041120524
288096,-0.342228621244431,38.1945020280531
288203,-0.341814309358597,38.064295776055
288310,-0.34243580698967,37.6736645320492
288419,-0.341192841529846,37.890674952046
288534,-0.342228621244431,37.9340832800511
288642,-0.341814309358597,37.7170666160486
288749,-0.34243580698967,37.5868541200448
288856,-0.340985685586929,37.8472666240409
288965,-0.341192841529846,37.8472666240409
289077,-0.340985685586929,38.2378916240409
289188,-0.342228621244431,37.8906687080403
289297,-0.342228621244431,37.9340770360454
289402,-0.343264430761337,37.5434520360454
289511,-0.341192841529846,37.8038707840473
289623,-0.340985685586929,37.9340770360454
289732,-0.341399997472763,38.0208812040441
289842,-0.34160715341568,38.1510874560422
289948,-0.34160715341568,38.2812937080403
290060,-0.342228621244431,38.4115062040441
290169,-0.342850118875504,38.1076853720428
290278,-0.341399997472763,38.2812937080403
290385,-0.34305727481842,38.0208749600384
290494,-0.341399997472763,37.8038582960358
290606,-0.342021465301514,37.8038582960358
290715,-0.342021465301514,37.6302499600384
290824,-0.341399997472763,37.8472666240409
290931,-0.34160715341568,37.8038645400416
291042,-0.341399997472763,38.0208812040441
291152,-0.342228621244431,37.8472728680467
291261,-0.34077849984169,37.8906811960518
291370,-0.341814309358597,37.9340832800511
291477,-0.341399997472763,37.9340832800511
291586,-0.34160715341568,37.8906811960518
291699,-0.341814309358597,38.0208936920556
291807,-0.341814309358597,38.0208936920556
291916,-0.341399997472763,38.1076978600543
292023,-0.342021465301514,38.1076978600543
292132,-0.342850118875504,37.9774853640505
292244,-0.34243580698967,37.890674952046
292353,-0.342021465301514,37.6302562040441
292462,-0.340571343898773,37.9774791200448
292569,-0.342021465301514,37.9340770360454
292678,-0.342228621244431,38.1076916160486
292792,-0.342021465301514,37.9774853640505
292899,-0.34243580698967,37.8472728680467
293008,-0.34305727481842,37.4566478680467
293115,-0.341192841529846,37.500049952046
293224,-0.33932837843895,37.9340832800511
293336,-0.342228621244431,38.0208936920556
293449,-0.342228621244431,38.0643020200607
293554,-0.342228621244431,38.1077103480659
293661,-0.342021465301514,38.1077103480659
293770,-0.34243580698967,38.2379166000639
293882,-0.34160715341568,38.0643020200607
293992,-0.342021465301514,37.8906936840633
294100,-0.340985685586929,37.8472853560582
294207,-0.342850118875504,37.7604811880595
294316,-0.342021465301514,37.8906936840633
294428,-0.340571343898773,37.9340957680627
294537,-0.342021465301514,37.977497852062
294649,-0.341814309358597,37.7170791040601
294753,-0.342642962932587,37.5434645240569
294862,-0.341814309358597,37.7604811880595
294974,-0.340571343898773,37.8906936840633
295083,-0.343264430761337,37.5000686840633
295192,-0.342228621244431,37.3698624320652
295299,-0.342021465301514,37.2830582640665
295408,-0.34243580698967,37.1528457680627
295520,-0.342021465301514,37.3264603480659
295628,-0.342850118875504,37.1528457680627
295740,-0.342642962932587,36.8490249360614
295850,-0.342228621244431,36.8924332640665
295954,-0.34160715341568,37.0660478440697
296066,-0.341814309358597,37.1528520120684
296174,-0.341814309358597,37.0226457600703
296284,-0.342228621244431,37.0226457600703
296394,-0.340985685586929,37.4566728440697
296500,-0.34077849984169,37.4132707600703
296612,-0.342642962932587,37.2830582640665
296720,-0.34305727481842,36.9358353480659
296830,-0.340571343898773,37.369868676071
296936,-0.342228621244431,37.4132770040761
297049,-0.342642962932587,37.3264665920716
297158,-0.341399997472763,37.4132707600703
297267,-0.342642962932587,37.1528520120684
297377,-0.34160715341568,37.369868676071
297483,-0.341192841529846,37.5434770120684
297593,-0.340985685586929,37.4566666000639
297704,-0.340985685586929,37.6736770200607
297813,-0.342021465301514,37.6736770200607
297923,-0.34305727481842,37.5434707680627
298029,-0.34160715341568,37.6736770200607
298141,-0.342228621244431,37.6302749360614
298251,-0.34160715341568,37.8038895160646
298359,-0.34243580698967,37.7604811880595
298469,-0.342850118875504,37.3698561880595
298575,-0.341814309358597,37.4566603560582
298685,-0.341399997472763,37.5434645240569
298800,-0.34077849984169,37.9340957680627
298905,-0.343264430761337,37.5434707680627
299015,-0.341814309358597,37.6736832640665
299121,-0.34305727481842,37.3698624320652
299231,-0.341192841529846,37.4566666000639
299343,-0.34077849984169,37.8038957600703
299451,-0.341814309358597,37.6302874240729
299560,-0.340985685586929,37.9341082560742
299667,-0.34160715341568,38.0643145080723
299776,-0.342228621244431,37.9341082560742
299888,-0.341814309358597,38.1077228360774
300000,-0.34160715341568,38.064320752078
300106,-0.34077849984169,38.3681415840793
300213,-0.342021465301514,38.2379353320812
300322,-0.34243580698967,38.0209186680786
300434,-0.34160715341568,37.9341145000799
300543,-0.341192841529846,38.1077228360774
300653,-0.34243580698967,38.0209124240729
300759,-0.34243580698967,37.9775040960678
300868,-0.342021465301514,37.8906999280691
300980,-0.341399997472763,37.8472978440697
301091,-0.341192841529846,37.9341020120684
301201,-0.34160715341568,37.8472978440697
301305,-0.340364187955856,38.2813311720748
301414,-0.338706910610199,38.845570752078
301526,-0.343678742647171,38.3247395000799
301635,-0.341399997472763,38.6285603320812
301745,-0.343471586704254,38.2813374160806
301851,-0.339121222496033,38.8455769960838
301960,-0.344093084335327,38.2813374160806
302072,-0.341192841529846,38.4983478360774
302181,-0.341814309358597,38.4983478360774
302291,-0.342642962932587,38.454945752078
302400,-0.341192841529846,38.454945752078
302506,-0.34160715341568,38.5851520040761
302618,-0.34160715341568,38.6285540880754
302727,-0.341814309358597,38.7587665840793
302836,-0.341399997472763,38.6719624160806
302945,-0.340571343898773,38.8021749120844
303052,-0.340571343898773,38.8889853240889
303164,-0.341399997472763,39.0625936600863
303273,-0.342228621244431,39.0625936600863
303382,-0.342021465301514,39.3230124080882
303489,-0.34160715341568,39.2362082400895
303602,-0.341192841529846,39.1928061560902
303710,-0.342850118875504,38.8889853240889
303819,-0.34160715341568,38.8889853240889
303928,-0.342021465301514,38.8021811560902
304035,-0.341814309358597,38.8889853240889
304145,-0.34077849984169,39.323018652094
304256,-0.341814309358597,39.2362144840953
304365,-0.341814309358597,39.4966332320972
304474,-0.341192841529846,39.5400353160965
304581,-0.341192841529846,39.713643652094
304690,-0.34243580698967,39.6268332400895
304802,-0.341399997472763,39.6268332400895
304911,-0.342850118875504,39.3664144920876
305020,-0.341814309358597,39.2796103240889
305127,-0.342021465301514,39.3230124080882
305236,-0.340571343898773,39.3664144920876
305353,-0.34160715341568,39.409816576087
305457,-0.341399997472763,39.409816576087
305566,-0.340571343898773,39.6268332400895
305673,-0.342228621244431,39.5400290720908
305782,-0.341399997472763,39.6268332400895
305895,-0.344507396221161,38.9757894920876
306003,-0.340364187955856,39.3230124080882
306112,-0.34243580698967,39.409816576087
306219,-0.34160715341568,39.5834311560902
306328,-0.341192841529846,39.7570394920876
306440,-0.34243580698967,39.3664082480818
306552,-0.341399997472763,39.4966145000799
306658,-0.341814309358597,39.5834186680786
306765,-0.340985685586929,39.8004290880754
306874,-0.342228621244431,39.8438374160806
306986,-0.341399997472763,40.1910603320812
307095,-0.342228621244431,39.9740499120844
307204,-0.342228621244431,39.3664082480818
307311,-0.34160715341568,39.4966145000799
307420,-0.341192841529846,39.7136249200767
307532,-0.342021465301514,39.7570270040761
307643,-0.342642962932587,39.6268145080723
307753,-0.34243580698967,39.6268145080723
307857,-0.341399997472763,39.6702165920716
307966,-0.342228621244431,39.6268145080723
308078,-0.341399997472763,39.5400103400735
308187,-0.341192841529846,39.8872332560742
308297,-0.342228621244431,39.8438311720748
308403,-0.342021465301514,39.5400103400735
308512,-0.342021465301514,39.5400103400735
308624,-0.342228621244431,39.4532061720748
308733,-0.342642962932587,39.4532061720748
308843,-0.341192841529846,39.5834124240729
308953,-0.341814309358597,39.322993676071
309058,-0.341399997472763,39.713618676071
309170,-0.341192841529846,39.9306290960678
309279,-0.341192841529846,40.1042374320652
309388,-0.341814309358597,40.2344499280691
309495,-0.342850118875504,40.0608353480659
309604,-0.341192841529846,40.4080582640665
309716,-0.34243580698967,40.4514603480659
309825,-0.341814309358597,40.5382645160646
309934,-0.342021465301514,40.4514603480659
310043,-0.342228621244431,40.3646561800671
310152,-0.340985685586929,40.5382645160646
310264,-0.341192841529846,40.7552749360614
310371,-0.341399997472763,40.6684707680627
310480,-0.34160715341568,40.4948561880595
310587,-0.34243580698967,40.5382582720588
310698,-0.34077849984169,41.0156936840633
310808,-0.34243580698967,40.6250624400575
310917,-0.34243580698967,40.5816541120524
311026,-0.341814309358597,40.7552686920556
311133,-0.342228621244431,40.5816603560582
311244,-0.340985685586929,40.9288832720588
311354,-0.342228621244431,40.7986770200607
311463,-0.341399997472763,40.7552749360614
311572,-0.342642962932587,40.4080520200607
311679,-0.340571343898773,40.4948624320652
311788,-0.340985685586929,40.711872852062
311903,-0.34160715341568,41.0156936840633
312009,-0.342228621244431,40.8854874320652
312118,-0.342642962932587,40.7986770200607
312225,-0.340364187955856,41.0590957680627
312334,-0.34243580698967,41.0590957680627
312448,-0.341192841529846,41.4063186840633
312555,-0.34243580698967,41.2761061880595
312664,-0.342642962932587,41.0156874400575
312771,-0.34077849984169,41.0156874400575
312880,-0.34305727481842,41.0590895240569
312994,-0.340985685586929,41.2326978600543
313103,-0.340571343898773,41.7535353560582
313210,-0.340571343898773,41.883747852062
313317,-0.34077849984169,41.883747852062
313426,-0.342228621244431,41.7969436840633
313538,-0.342228621244431,41.5365311800671
313648,-0.34160715341568,41.5365311800671
313756,-0.342642962932587,41.4497207680627
313863,-0.341192841529846,41.5799270200607
313972,-0.341814309358597,41.5365249360614
314084,-0.341192841529846,41.4497145240569
314193,-0.342021465301514,41.4497145240569
314305,-0.341399997472763,41.6667311880595
314409,-0.34077849984169,41.8403457680627
314518,-0.341814309358597,41.7101395160646
314630,-0.342228621244431,41.7535478440697
314740,-0.341192841529846,42.0139665920716
314851,-0.342642962932587,41.8837540960678
314956,-0.341192841529846,41.9271561800671
315065,-0.342021465301514,41.7535478440697
315177,-0.341192841529846,41.8403520120684
315285,-0.341814309358597,41.5365311800671
315397,-0.342228621244431,40.7986832640665
315501,-0.342228621244431,41.1025040960678
315611,-0.342850118875504,40.7986832640665
315723,-0.340571343898773,41.4063249280691
315831,-0.342021465301514,40.7986832640665
315941,-0.342228621244431,41.1893145080723
316047,-0.342228621244431,40.9723040880754
