time,raw,transformed
4080,-0.339949876070023,0
4190,-0.339535564184189,0
4300,-0.340985685586929,0
4410,-0.340985685586929,0
4520,-0.340157032012939,0
4630,-0.341192841529846,0
4740,-0.339949876070023,0
4850,-0.341192841529846,0
4960,-0.34077849984169,0
5060,-0.339535564184189,0
5170,-0.341399997472763,47.4748604975598
5280,-0.339121222496033,43.9391165225875
5390,-0.34077849984169,42.6571323083373
5500,-0.341192841529846,40.2595279509615
5610,-0.340157032012939,41.2119151310662
5720,-0.341192841529846,39.2043373919412
5830,-0.339949876070023,40.641494425217
5940,-0.342228621244431,53.3328964208349
6050,-0.340157032012939,54.0346569762956
6160,-0.340157032012939,54.6662414762098
6270,-0.339949876070023,55.5551292994582
6380,-0.341192841529846,54.5450186017197
6480,-0.339535564184189,55.9415814166058
6590,-0.339949876070023,56.6662190977644
6700,-0.340364187955856,56.799562661244
6810,-0.340364187955856,56.9226490275332
6920,-0.340157032012939,57.283526729277
7030,-0.341814309358597,55.713867831077
7140,-0.341399997472763,54.712222566535
7250,-0.339742720127106,55.5551292994582
7360,-0.34077849984169,55.2684067609298
7470,-0.340364187955856,55.416263055425
7580,-0.340364187955856,55.5551583623747
7690,-0.340985685586929,55.0976311381588
7790,-0.34077849984169,54.8567482657855
7900,-0.340571343898773,54.8144294082614
8010,-0.341399997472763,54.0536652393707
8120,-0.341192841529846,53.508376521209
8230,-0.34077849984169,53.3329497028456
8340,-0.341192841529846,52.8329433090041
8450,-0.341814309358597,51.8695319497527
8560,-0.340364187955856,52.0631099553489
8670,-0.340985685586929,51.7825546712472
8780,-0.34160715341568,51.0602151643905
8890,-0.340985685586929,50.8144155549369
9000,-0.340571343898773,50.8691732471103
9110,-0.341814309358597,50.0705329137618
9210,-0.340157032012939,50.416279040028
9320,-0.340985685586929,50.2036862583761
9430,-0.340571343898773,50.266277921107
9540,-0.340985685586929,50.0649633096939
9650,-0.342021465301514,49.2303782227723
9760,-0.34077849984169,49.1820075130047
9870,-0.341192841529846,48.8885017062682
9980,-0.340364187955856,49.0905254604225
10090,-0.339742720127106,49.6424700870981
10200,-0.341192841529846,49.3563336636266
10310,-0.341814309358597,48.7352430414894
10420,-0.341814309358597,48.1352063387463
10530,-0.340157032012939,48.4440586826763
10630,-0.341192841529846,48.1963313919638
10740,-0.340985685586929,48.0641201233677
10850,-0.34077849984169,48.0419393373628
10960,-0.342021465301514,47.3954487038085
11070,-0.340571343898773,47.4867997913641
11180,-0.341814309358597,46.969319151793
11290,-0.340985685586929,46.8652880113033
11400,-0.341399997472763,46.5682419399519
11510,-0.340364187955856,46.7629023203107
11620,-0.34077849984169,46.7615284386651
11730,-0.341192841529846,46.5723899247281
11840,-0.339742720127106,47.0366542945841
11940,-0.341192841529846,46.8489288104002
12050,-0.340571343898773,46.9365550345149
12160,-0.340157032012939,47.1996189270497
12270,-0.340985685586929,47.1048770035235
12380,-0.341399997472763,46.8394390574946
12490,-0.34077849984169,46.8372248465669
12600,-0.340571343898773,46.9194532585704
12710,-0.340571343898773,46.9996259602747
12820,-0.341192841529846,46.8308984045821
12930,-0.341399997472763,46.5849869015913
13040,-0.34077849984169,46.5859717654896
13150,-0.340985685586929,46.5075582056503
13260,-0.340571343898773,46.5878606902294
13360,-0.34077849984169,46.5887777822626
13470,-0.34077849984169,46.5896737917205
13580,-0.34077849984169,46.5905494373276
13690,-0.340985685586929,46.516489699145
13800,-0.342021465301514,46.0737124668192
13910,-0.340571343898773,46.1534878176761
14020,-0.34077849984169,46.1590665436265
14130,-0.340985685586929,46.0928317715348
14240,-0.339949876070023,46.3826195799695
14350,-0.340157032012939,46.5961324999128
14460,-0.340571343898773,46.6663110092359
14570,-0.340571343898773,46.7350425389857
14670,-0.340364187955856,46.8703972904719
14780,-0.340157032012939,47.0703563781903
14890,-0.340157032012939,47.266316284155
15000,-0.341399997472763,47.0623542928208
15110,-0.341814309358597,46.7316751093584
15220,-0.34077849984169,46.731044580191
15330,-0.34077849984169,46.7304261765832
15440,-0.341192841529846,46.6028287267991
15550,-0.340985685586929,46.5405306514431
15660,-0.340571343898773,46.6040141911006
15770,-0.341192841529846,46.4811315962686
15880,-0.34160715341568,46.2381819152896
15990,-0.340571343898773,46.3026827105585
16090,-0.34077849984169,46.3059624213199
16200,-0.340157032012939,46.4877515691167
16310,-0.341192841529846,46.3713351300028
16420,-0.341399997472763,46.19848267412
16530,-0.34077849984169,46.2025543952579
16640,-0.34160715341568,45.9766669984841
16750,-0.340157032012939,46.1535018700759
16860,-0.340985685586929,46.1013470469321
16970,-0.340985685586929,46.0500687754365
17080,-0.340157032012939,46.2218710937624
17190,-0.341399997472763,46.0602536067021
17300,-0.34077849984169,46.0652247296391
17400,-0.341399997472763,45.9075087168728
17510,-0.341192841529846,45.806098920358
17620,-0.340985685586929,45.7596439909085
17730,-0.340364187955856,45.8726611670505
17840,-0.340157032012939,46.0363909765587
17950,-0.339949876070023,46.2496448420881
18060,-0.34077849984169,46.0413155049057
18170,-0.340571343898773,45.7809038334276
18280,-0.339949876070023,46.0413229976886
18390,-0.340364187955856,46.1975774933584
18500,-0.34077849984169,46.0413304904716
18610,-0.340571343898773,46.1975849861414
18720,-0.342228621244431,45.6246718161067
18820,-0.340157032012939,45.8850909803677
18930,-0.340985685586929,45.8330011532892
19040,-0.340157032012939,45.6767541504023
19150,-0.340364187955856,45.9371733146633
19260,-0.340364187955856,45.6246718161067
19370,-0.341399997472763,45.468417320437
19480,-0.340571343898773,45.6246718161067
19590,-0.340985685586929,45.4163349861414
19700,-0.34077849984169,45.5205071475155
19810,-0.340364187955856,45.4163424789243
19920,-0.340985685586929,45.7288364846979
20030,-0.340571343898773,45.6246718161067
20130,-0.342021465301514,45.1559233146633
20240,-0.340364187955856,45.0517586460721
20350,-0.341814309358597,44.8955116431853
20460,-0.340985685586929,44.5309278103331
20570,-0.340364187955856,44.4267631417419
20680,-0.339535564184189,44.6350924789243
20790,-0.340985685586929,44.4788379832545
20900,-0.341399997472763,44.1663364846979
21010,-0.340157032012939,44.5830026518457
21120,-0.341192841529846,44.6350849861414
21230,-0.34077849984169,44.3746733146633
21340,-0.341192841529846,44.2705011532892
21450,-0.341814309358597,43.905917320437
21550,-0.34077849984169,43.8017526518457
21660,-0.340364187955856,43.9580071475155
21770,-0.340985685586929,43.905917320437
21880,-0.341192841529846,43.7496628247672
21990,-0.339742720127106,44.166328991915
22100,-0.34077849984169,44.2705011532892
22210,-0.340985685586929,44.2184113262106
22320,-0.34077849984169,44.3225834875848
22430,-0.34077849984169,44.5830026518457
22540,-0.339742720127106,44.7392496547326
22650,-0.341399997472763,44.6350849861414
22760,-0.340571343898773,44.8955041504023
22860,-0.340571343898773,44.9996763117765
22970,-0.341399997472763,44.7913394818111
23080,-0.341192841529846,44.9475864846979
23190,-0.341399997472763,44.6350849861414
23300,-0.341399997472763,44.5309203175501
23410,-0.340985685586929,44.426748156176
23520,-0.340364187955856,44.5830026518457
23630,-0.340985685586929,44.8434143233238
23740,-0.341399997472763,44.687159827654
23850,-0.341399997472763,44.6350774933584
23960,-0.340571343898773,44.5829951590628
24070,-0.340985685586929,44.2704936605062
24180,-0.340571343898773,44.426748156176
24280,-0.341192841529846,44.5829951590628
24390,-0.340985685586929,44.7913244962452
24500,-0.34077849984169,44.6350774933584
24610,-0.341399997472763,44.5829951590628
24720,-0.340985685586929,44.5829951590628
24830,-0.340985685586929,44.5309053319842
24940,-0.340364187955856,44.947571499132
25050,-0.341399997472763,44.7392346691667
25160,-0.34160715341568,44.7913170034623
25270,-0.339535564184189,45.1559008363145
25380,-0.341399997472763,45.1559008363145
25490,-0.341399997472763,44.8954816720535
25590,-0.339949876070023,45.1038110092359
25700,-0.340157032012939,45.3642301734969
25810,-0.34160715341568,44.8954816720535
25920,-0.34077849984169,44.9996538334276
26030,-0.340985685586929,44.8954816720535
26140,-0.340571343898773,44.7913170034623
26250,-0.341192841529846,44.7392346691667
26360,-0.340364187955856,44.9996538334276
26470,-0.340571343898773,45.0517361677232
26580,-0.342228621244431,44.6350700005754
26690,-0.340571343898773,44.6350700005754
26800,-0.341192841529846,44.6350700005754
26910,-0.341399997472763,44.6350700005754
27010,-0.341192841529846,44.5308978392013
27120,-0.339949876070023,44.7913170034623
27230,-0.340571343898773,44.7913170034623
27340,-0.341399997472763,44.6350625077925
27450,-0.340985685586929,44.5829726807139
27560,-0.34160715341568,44.3746358507486
27670,-0.34160715341568,44.2183888478617
27780,-0.341814309358597,44.2704711821573
27890,-0.340985685586929,44.1662990207832
28000,-0.340985685586929,44.1142091937046
28110,-0.340985685586929,44.1142091937046
28220,-0.341399997472763,43.7496253608524
28320,-0.339949876070023,43.801707695148
28430,-0.340364187955856,43.8537900294436
28540,-0.34160715341568,43.5933708651827
28650,-0.34077849984169,43.4892061965914
28760,-0.340985685586929,43.2808693666261
28870,-0.340571343898773,43.1767046980349
28980,-0.34077849984169,43.3329591937046
29090,-0.34160715341568,43.3850415280002
29200,-0.341399997472763,43.2287870323305
29310,-0.340571343898773,43.2808693666261
29420,-0.341192841529846,43.2808693666261
29530,-0.339949876070023,43.5412885308871
29640,-0.340157032012939,43.6454531994783
29740,-0.34077849984169,43.7496253608524
29850,-0.34077849984169,43.9579621908178
29960,-0.340364187955856,44.0100445251134
30070,-0.340157032012939,44.1662915280002
30180,-0.341814309358597,43.7496253608524
30290,-0.340364187955856,43.9579621908178
30400,-0.341192841529846,44.0100445251134
30510,-0.340985685586929,43.9579546980349
30620,-0.34160715341568,43.9579546980349
30730,-0.340364187955856,43.9058723637392
30840,-0.341399997472763,43.801707695148
30950,-0.340571343898773,43.9058798565222
31050,-0.340985685586929,43.6975430265568
31160,-0.340571343898773,43.9058798565222
31270,-0.340985685586929,43.8537900294436
31380,-0.34160715341568,43.801707695148
31490,-0.339121222496033,44.32254602367
31600,-0.340985685586929,44.32254602367
31710,-0.340985685586929,44.1662915280002
31820,-0.341399997472763,43.8537900294436
31930,-0.341192841529846,43.5412885308871
32040,-0.339535564184189,43.8537825366607
32150,-0.340571343898773,43.8537825366607
32260,-0.340985685586929,43.5933633723997
32370,-0.340364187955856,43.5933633723997
32470,-0.342228621244431,43.2287795395475
32580,-0.340157032012939,43.3329442081387
32690,-0.341399997472763,43.5412735453211
32800,-0.34077849984169,43.3850265424343
32910,-0.340985685586929,43.3850265424343
33020,-0.342021465301514,42.9162780409909
33130,-0.341192841529846,42.7079412110255
33240,-0.34077849984169,42.6037765424343
33350,-0.341399997472763,42.6037765424343
33460,-0.34077849984169,42.5516942081387
33570,-0.34160715341568,42.3954472052519
33680,-0.34077849984169,42.3954472052519
33780,-0.34077849984169,42.2912825366607
33890,-0.340571343898773,42.3954546980349
34000,-0.340985685586929,42.2912825366607
34110,-0.34160715341568,42.3954472052519
34220,-0.340985685586929,42.2391927095821
34330,-0.341192841529846,42.3954397124689
34440,-0.340985685586929,42.3954397124689
34550,-0.340571343898773,42.3433573781733
34660,-0.342228621244431,41.6662795395475
34770,-0.340985685586929,41.6662795395475
34880,-0.34077849984169,41.8225340352173
34990,-0.340571343898773,41.7183693666261
35100,-0.340985685586929,41.7704517009217
35200,-0.340364187955856,41.8746163695129
35310,-0.341192841529846,41.8746163695129
35420,-0.34077849984169,42.1350355337739
35530,-0.342228621244431,41.7704517009217
35640,-0.34077849984169,41.6662870323305
35750,-0.339949876070023,41.9267061965914
35860,-0.341192841529846,41.9267061965914
35970,-0.340364187955856,41.7704591937046
36080,-0.341399997472763,41.6142046980349
36190,-0.341399997472763,41.5100400294436
36300,-0.34077849984169,41.5100400294436
36410,-0.339949876070023,41.7183693666261
36510,-0.34160715341568,41.2496208651827
36620,-0.34077849984169,41.4058753608524
36730,-0.34160715341568,41.1454561965914
36840,-0.340571343898773,41.1454561965914
36950,-0.34077849984169,41.3017106922612
37060,-0.340985685586929,41.3537930265568
37170,-0.34160715341568,41.3017106922612
37280,-0.341192841529846,41.3537930265568
37390,-0.341399997472763,41.2496283579656
37500,-0.34077849984169,41.1454636893744
37610,-0.340985685586929,41.1454636893744
37720,-0.340571343898773,41.3538005193398
37830,-0.342228621244431,41.1454711821573
37930,-0.341192841529846,40.9892166864876
38040,-0.34160715341568,40.8329696836008
38150,-0.341399997472763,40.6246328536354
38260,-0.340985685586929,40.676715187931
38370,-0.339742720127106,40.9892166864876
38480,-0.341192841529846,40.8850445251134
38590,-0.341399997472763,40.8850445251134
38700,-0.340364187955856,41.0412990207832
38810,-0.34077849984169,41.0933888478617
38920,-0.341399997472763,40.8329696836008
39030,-0.341192841529846,40.8850520178964
39140,-0.34077849984169,41.0933888478617
39240,-0.342021465301514,40.4683933435315
39350,-0.341814309358597,40.3642286749403
39460,-0.341399997472763,40.3642286749403
39570,-0.341192841529846,40.0517271763837
39680,-0.340571343898773,39.9475625077925
39790,-0.341814309358597,39.8954801734969
39900,-0.340571343898773,39.9475625077925
40010,-0.341192841529846,39.8954801734969
40120,-0.34077849984169,39.8433978392013
40230,-0.34160715341568,39.7392331706101
40340,-0.341192841529846,39.5308963406447
40450,-0.341192841529846,39.3746418449749
40560,-0.340571343898773,39.7913080121227
40660,-0.34077849984169,39.7392256778271
40770,-0.342228621244431,39.4788140063491
40880,-0.342642962932587,39.1663125077925
40990,-0.34077849984169,39.2704846691667
41100,-0.34160715341568,38.8538185020189
41210,-0.340364187955856,38.9059008363145
41320,-0.34077849984169,39.0621553319842
41430,-0.341192841529846,39.0100729976886
41540,-0.341399997472763,39.0621553319842
41650,-0.341192841529846,39.1663200005754
41760,-0.340364187955856,39.5309038334276
41870,-0.341814309358597,39.3225744962452
41970,-0.34077849984169,39.3746643233238
42080,-0.34160715341568,39.218417320437
42190,-0.341192841529846,39.2704996547326
42300,-0.340157032012939,39.218417320437
42410,-0.341192841529846,39.0100804904716
42520,-0.340157032012939,39.3746643233238
42630,-0.34077849984169,39.3746643233238
42740,-0.341814309358597,39.1663349861414
42850,-0.34077849984169,39.1142526518457
42960,-0.341399997472763,38.957998156176
43070,-0.341814309358597,38.9059158218804
43180,-0.34160715341568,38.8538334875848
43290,-0.339742720127106,39.0621628247672
43390,-0.340364187955856,39.2704996547326
43500,-0.340985685586929,39.0100804904716
43610,-0.341192841529846,38.7496613262106
43720,-0.34243580698967,38.3329876662798
43830,-0.339949876070023,38.5413170034623
43940,-0.340985685586929,38.3850625077925
44050,-0.34160715341568,38.0204786749403
44160,-0.34243580698967,37.8642241792705
44270,-0.341814309358597,37.4996403464183
44380,-0.340571343898773,37.6558948420881
44490,-0.340571343898773,37.7600670034623
44600,-0.340985685586929,37.9163140063491
44700,-0.341192841529846,37.7079771763837
44810,-0.34077849984169,37.8642316720535
44920,-0.34077849984169,37.8121493377579
45030,-0.341399997472763,37.7079846691667
45140,-0.341192841529846,37.5517301734969
45250,-0.34077849984169,37.6038200005754
45360,-0.34077849984169,37.8121568305408
45470,-0.340985685586929,37.3434008363145
45580,-0.340985685586929,37.3434008363145
45690,-0.340571343898773,37.4475729976886
45800,-0.341399997472763,37.4475729976886
45910,-0.341192841529846,37.4475729976886
46020,-0.340364187955856,37.2392436605062
46120,-0.341192841529846,37.0829891648364
46230,-0.341192841529846,37.0309068305408
46340,-0.342228621244431,36.5621583290974
46450,-0.339535564184189,37.2392361677232
46560,-0.340571343898773,37.135071499132
46670,-0.340364187955856,37.395490663393
46780,-0.34077849984169,37.395490663393
46890,-0.341192841529846,37.3434083290974
47000,-0.340571343898773,37.7079921619496
47110,-0.341399997472763,37.655909827654
47220,-0.34160715341568,37.4475729976886
47330,-0.34077849984169,37.6038274933584
47430,-0.341399997472763,37.4475729976886
47540,-0.340571343898773,37.7079921619496
47650,-0.340157032012939,37.8642391648364
47760,-0.34160715341568,37.6559023348711
47870,-0.340985685586929,37.5517301734969
47980,-0.339742720127106,37.8642316720535
48090,-0.341192841529846,37.9683963406447
48200,-0.340157032012939,38.1767331706101
48310,-0.341192841529846,38.1767331706101
48420,-0.34077849984169,38.2288229976886
48530,-0.340985685586929,38.1246508363145
48640,-0.342021465301514,38.1767331706101
48750,-0.342228621244431,37.8642391648364
48850,-0.341192841529846,37.7600670034623
48960,-0.34160715341568,37.4996478392013
49070,-0.342021465301514,37.2392361677232
49180,-0.342021465301514,36.8225700005754
49290,-0.341192841529846,36.8225700005754
49400,-0.341814309358597,36.5621508363145
49510,-0.341192841529846,36.8225625077925
49620,-0.340157032012939,36.9788095106793
49730,-0.341399997472763,36.6142256778271
49840,-0.340985685586929,36.6663080121227
49950,-0.341399997472763,36.4058888478617
50060,-0.341192841529846,36.4579711821573
50160,-0.341192841529846,36.5100535164529
50270,-0.340985685586929,36.4579636893744
50380,-0.342021465301514,35.9371328536354
50490,-0.342021465301514,35.8329681850442
50600,-0.341192841529846,35.72879602367
50710,-0.340364187955856,36.0412975222266
50820,-0.341192841529846,35.8850430265568
50930,-0.342228621244431,35.5204591937046
51040,-0.341814309358597,35.3121298565222
51150,-0.34077849984169,35.5204666864876
51260,-0.339949876070023,35.8329681850442
51370,-0.340571343898773,36.0413050150095
51480,-0.341399997472763,35.8850505193398
51580,-0.341814309358597,35.6767211821573
51690,-0.34243580698967,35.207965187931
51800,-0.34077849984169,35.5725490207832
51910,-0.341192841529846,35.5725490207832
52020,-0.339949876070023,35.989215187931
52130,-0.340571343898773,36.1975520178964
52240,-0.342642962932587,35.7808858507486
52350,-0.342021465301514,35.2079726807139
52460,-0.341192841529846,35.2079726807139
52570,-0.342021465301514,35.0517256778271
52680,-0.341399997472763,34.7913065135661
52790,-0.34160715341568,34.5829696836008
52890,-0.341814309358597,34.4788050150095
53000,-0.340571343898773,34.6350595106793
53110,-0.34077849984169,34.6350595106793
53220,-0.340364187955856,35.0517256778271
53330,-0.341192841529846,35.2079726807139
53440,-0.34243580698967,34.9475535164529
53550,-0.34160715341568,34.8433888478617
53660,-0.340571343898773,34.8433888478617
53770,-0.340364187955856,35.2079726807139
53880,-0.340571343898773,35.2079726807139
53990,-0.34160715341568,35.1038080121227
54100,-0.341192841529846,34.9996358507486
54210,-0.340571343898773,35.2600550150095
54310,-0.341399997472763,35.2079726807139
54420,-0.341399997472763,35.1558903464183
54530,-0.34160715341568,34.8954711821573
54640,-0.341192841529846,34.7912990207832
54750,-0.34077849984169,35.1558828536354
54860,-0.340571343898773,35.6767211821573
54970,-0.340571343898773,35.7288035164529
55080,-0.341814309358597,35.6767211821573
55190,-0.342021465301514,35.2600550150095
55300,-0.340985685586929,35.207965187931
55410,-0.341399997472763,35.1558828536354
55520,-0.34077849984169,35.3121373493052
55620,-0.340985685586929,35.3642196836008
55730,-0.342228621244431,34.8954711821573
55840,-0.341192841529846,35.0517181850442
55950,-0.342021465301514,34.7392166864876
56060,-0.340571343898773,34.9996358507486
56170,-0.340571343898773,35.1558903464183
56280,-0.340985685586929,34.9475535164529
56390,-0.340571343898773,35.1038080121227
56500,-0.34160715341568,34.7392241792705
56610,-0.34160715341568,34.5308873493052
56720,-0.341399997472763,34.6350520178964
56830,-0.34077849984169,34.6350520178964
56940,-0.341814309358597,34.5308873493052
57040,-0.341192841529846,34.687134352192
57150,-0.342228621244431,34.5308873493052
57260,-0.341814309358597,34.0100565135661
57370,-0.341399997472763,33.7496373493052
57480,-0.34077849984169,33.8017271763837
57590,-0.34077849984169,33.9058993377579
57700,-0.34160715341568,34.1142361677232
57810,-0.34077849984169,33.9059068305408
57920,-0.340571343898773,34.010078991915
58030,-0.341399997472763,34.0621613262106
58140,-0.340364187955856,34.5829996547326
58250,-0.34160715341568,34.6350819890282
58350,-0.341814309358597,34.3225804904716
58460,-0.34243580698967,33.8538244962452
58570,-0.340571343898773,33.9579966576194
58680,-0.340571343898773,34.1142511532892
58790,-0.34160715341568,33.9059143233238
58900,-0.341192841529846,33.8017421619496
59010,-0.34077849984169,33.9579966576194
59120,-0.342228621244431,33.6975849861414
59230,-0.340985685586929,33.6454951590628
59340,-0.342228621244431,33.2809113262106
59450,-0.341814309358597,33.0725819890282
59560,-0.341192841529846,33.0204996547326
59670,-0.342021465301514,32.6559158218804
59770,-0.342021465301514,32.4996688189935
59880,-0.340985685586929,32.5517511532892
59990,-0.340571343898773,32.4996688189935
60100,-0.34077849984169,32.6038409803677
60210,-0.34077849984169,32.7080131417419
60320,-0.341399997472763,32.9163424789243
60430,-0.340571343898773,32.6559308074463
60540,-0.340985685586929,32.5517586460721
60650,-0.340985685586929,32.3955041504023
60760,-0.340571343898773,32.4475864846979
60870,-0.34160715341568,32.3434218161067
60980,-0.340364187955856,32.3955041504023
61080,-0.340985685586929,32.4996688189935
61190,-0.340571343898773,32.7600879832545
61300,-0.341814309358597,32.4996688189935
61410,-0.341814309358597,32.3955041504023
61520,-0.34077849984169,32.3434218161067
61630,-0.340364187955856,32.2913394818111
61740,-0.340985685586929,32.4475864846979
61850,-0.34243580698967,32.0830026518457
61960,-0.341192841529846,31.7184188189935
62070,-0.34077849984169,31.8225909803677
62180,-0.341399997472763,31.5100894818111
62290,-0.340985685586929,31.5621718161067
62400,-0.34160715341568,31.3538349861414
62500,-0.340985685586929,31.3538349861414
62610,-0.341399997472763,31.5100819890282
62720,-0.341192841529846,31.7704936605062
62830,-0.340985685586929,31.8225759948018
62940,-0.340157032012939,32.187159827654
63050,-0.34160715341568,32.2913244962452
63160,-0.341192841529846,32.4996538334276
63270,-0.340985685586929,32.5517361677232
63380,-0.341192841529846,32.7079831706101
63490,-0.340985685586929,32.7600655049057
63600,-0.342850118875504,32.0829801734969
63710,-0.34077849984169,32.2392346691667
63810,-0.341399997472763,32.1350700005754
63920,-0.34243580698967,31.8746508363145
64030,-0.341814309358597,31.7184038334276
64140,-0.341192841529846,31.7184038334276
64250,-0.341192841529846,31.666321499132
64360,-0.340364187955856,32.0829876662798
64470,-0.342228621244431,32.0309053319842
64580,-0.34077849984169,32.1350774933584
64690,-0.341192841529846,31.926740663393
64800,-0.34077849984169,32.0309128247672
64910,-0.34077849984169,32.3954966576194
65020,-0.34243580698967,32.2392421619496
65130,-0.342021465301514,31.926740663393
65230,-0.341814309358597,31.4579921619496
65340,-0.341192841529846,31.3017376662798
65450,-0.34160715341568,31.2496553319842
65560,-0.341399997472763,31.3538200005754
65670,-0.34160715341568,31.5621568305408
65780,-0.34243580698967,31.1454831706101
65890,-0.340985685586929,31.1975655049057
66000,-0.341192841529846,30.8850640063491
66110,-0.34160715341568,30.6246448420881
66220,-0.340985685586929,31.0413110092359
66330,-0.34077849984169,31.3538125077925
66440,-0.340571343898773,31.5100670034623
66540,-0.341399997472763,31.6663140063491
66650,-0.340985685586929,31.7704786749403
66760,-0.342021465301514,31.6663140063491
66870,-0.341192841529846,31.8225610092359
66980,-0.34077849984169,31.7704786749403
67090,-0.340157032012939,31.9267256778271
67200,-0.340985685586929,31.7704711821573
67310,-0.342228621244431,31.5100595106793
67420,-0.34077849984169,31.9267331706101
67530,-0.341192841529846,32.0308978392013
67640,-0.340985685586929,31.9267256778271
67750,-0.342021465301514,31.5100595106793
67860,-0.341399997472763,31.3017226807139
67960,-0.339949876070023,31.7183888478617
68070,-0.34077849984169,31.8225610092359
68180,-0.340985685586929,31.7183888478617
68290,-0.340364187955856,31.9788080121227
68400,-0.341399997472763,31.9788080121227
68510,-0.340571343898773,32.2392271763837
68620,-0.341399997472763,32.1871448420881
68730,-0.341192841529846,32.0829726807139
68840,-0.342228621244431,31.6663065135661
68950,-0.341192841529846,31.5100520178964
69060,-0.341399997472763,31.6142166864876
69170,-0.340157032012939,32.082965187931
69270,-0.342021465301514,31.8225535164529
69380,-0.34077849984169,31.9788080121227
69490,-0.341814309358597,31.7183888478617
69600,-0.341399997472763,31.6142241792705
69710,-0.340985685586929,31.9267181850442
69820,-0.339742720127106,32.2913020178964
69930,-0.340571343898773,32.6558858507486
70040,-0.341192841529846,32.4996313550788
70150,-0.342228621244431,32.082965187931
70260,-0.340985685586929,32.082965187931
70370,-0.34077849984169,32.0308828536354
70480,-0.340985685586929,32.1871298565222
70590,-0.341399997472763,32.2392121908178
70690,-0.340985685586929,32.343376859409
70800,-0.341814309358597,32.082957695148
70910,-0.341192841529846,32.2392046980349
71020,-0.340571343898773,32.3954591937046
71130,-0.341192841529846,32.6558708651827
71240,-0.342021465301514,32.6037885308871
71350,-0.34077849984169,32.7600430265568
71460,-0.341399997472763,32.6037885308871
71570,-0.34160715341568,32.3954517009217
71680,-0.341399997472763,32.4475340352173
71790,-0.340985685586929,32.3954442081387
71900,-0.341814309358597,32.0829427095821
72000,-0.342021465301514,31.9266957066953
72110,-0.341814309358597,31.5621118738431
72220,-0.341399997472763,31.6141942081387
72330,-0.341192841529846,31.7704412110255
72440,-0.340571343898773,32.2391972052519
72550,-0.340985685586929,32.1350250438777
72660,-0.342021465301514,31.7704412110255
72770,-0.341192841529846,31.8746058796168
72880,-0.340985685586929,31.9266882139124
72990,-0.34077849984169,31.9266882139124
73100,-0.341814309358597,32.0308528825036
73210,-0.341399997472763,31.9266882139124
73320,-0.341399997472763,32.1350175510948
73420,-0.341814309358597,32.1350175510948
73530,-0.341814309358597,31.978770548208
73640,-0.340985685586929,32.239182219686
73750,-0.340571343898773,32.6037660525382
73860,-0.341192841529846,32.5516837182426
73970,-0.340985685586929,32.4475115568684
74080,-0.341814309358597,32.1870923926074
74190,-0.340985685586929,32.1350025655289
74300,-0.342228621244431,31.9266732283465
74410,-0.340571343898773,31.9266732283465
74520,-0.341399997472763,31.8225085597552
74630,-0.340985685586929,31.8225085597552
74730,-0.340985685586929,31.7183363983811
74840,-0.341399997472763,31.7704187326767
74950,-0.34160715341568,31.4579172341201
75060,-0.341399997472763,31.3537525655289
75170,-0.340571343898773,31.3537525655289
75280,-0.341192841529846,31.5099995684157
75390,-0.341399997472763,31.6141642370069
75500,-0.340985685586929,31.5620744099284
75610,-0.34160715341568,31.2495729113718
75720,-0.341192841529846,31.1974905770762
75830,-0.340985685586929,31.5620744099284
75940,-0.34077849984169,31.6662465713025
76050,-0.341399997472763,31.5099920756327
76150,-0.34243580698967,31.2495729113718
76260,-0.34160715341568,31.093325908485
76380,-0.340571343898773,31.3537450727459
76480,-0.340985685586929,31.3537450727459
76590,-0.342021465301514,31.1974980698591
76700,-0.341399997472763,31.1454157355635
76810,-0.34160715341568,30.9891687326767
76920,-0.342228621244431,30.4683378969377
77030,-0.341192841529846,30.5725025655289
77140,-0.341192841529846,30.5725025655289
77250,-0.341192841529846,30.5204202312333
77360,-0.342228621244431,30.2600085597552
77460,-0.34160715341568,30.1037615568684
77570,-0.341814309358597,30.3641807211294
77680,-0.342642962932587,29.895424726903
77790,-0.341192841529846,29.9475070611987
77900,-0.341192841529846,30.2600085597552
78010,-0.34077849984169,30.5204277240162
78120,-0.341814309358597,30.3641807211294
78230,-0.341399997472763,30.3120983868338
78340,-0.34160715341568,29.9995968882772
78450,-0.340985685586929,30.3120908940509
78560,-0.341814309358597,30.0516717297899
78670,-0.340985685586929,30.1037540640855
78780,-0.342021465301514,29.7912525655289
78880,-0.34160715341568,29.5829157355635
78990,-0.341399997472763,29.8433348998245
79100,-0.340364187955856,30.2600010669723
79210,-0.341192841529846,30.4162480698591
79320,-0.34077849984169,30.5204202312333
79430,-0.340571343898773,30.7808393954943
79540,-0.340571343898773,30.9891762254596
79650,-0.34160715341568,30.9891762254596
79760,-0.341399997472763,31.2495953897206
79870,-0.339742720127106,31.5620968882772
79980,-0.342021465301514,31.3537675510948
80090,-0.340364187955856,31.6662690496514
80190,-0.341192841529846,31.6141867153558
80300,-0.34160715341568,31.4058498853904
80410,-0.340985685586929,31.3016777240162
80520,-0.341192841529846,31.3537600583118
80630,-0.339742720127106,31.6662615568684
80740,-0.341399997472763,31.8225085597552
80850,-0.34243580698967,31.5100070611987
80960,-0.341814309358597,31.2495878969377
81070,-0.341399997472763,30.9370863983811
81180,-0.341399997472763,30.8329217297899
81290,-0.340571343898773,31.2495878969377
81400,-0.340571343898773,31.3016702312333
81510,-0.342228621244431,31.0412585597552
81610,-0.341814309358597,30.8329292225728
81720,-0.340571343898773,31.197513055425
81830,-0.341192841529846,31.2495953897206
81940,-0.34160715341568,30.8329292225728
82050,-0.342021465301514,30.5204277240162
82160,-0.342642962932587,30.1037615568684
82270,-0.34160715341568,29.7912600583118
82380,-0.34077849984169,29.9475145539816
82490,-0.341814309358597,29.635013055425
82600,-0.341814309358597,29.5308483868338
82710,-0.340985685586929,29.5829307211294
82820,-0.342642962932587,29.4787585597552
82920,-0.34160715341568,29.374593891164
83030,-0.342021465301514,29.2183468882772
83140,-0.341399997472763,28.9058453897206
83250,-0.34160715341568,29.0100100583118
83360,-0.34160715341568,28.8016732283465
83470,-0.341814309358597,28.8016732283465
83580,-0.341192841529846,28.8537555626421
83690,-0.341814309358597,28.6454262254596
83800,-0.341399997472763,28.2287600583118
83910,-0.340571343898773,28.2287600583118
84020,-0.341814309358597,28.072513055425
84130,-0.341399997472763,28.2808423926074
84240,-0.341192841529846,28.2287600583118
84340,-0.34160715341568,28.0204232283465
84450,-0.342228621244431,27.7079292225728
84560,-0.34077849984169,27.8641837182426
84670,-0.342228621244431,27.551689712469
84780,-0.34243580698967,27.3954352167992
84890,-0.340364187955856,27.6037720467646
85000,-0.341814309358597,27.291270548208
85110,-0.342228621244431,27.0308588767299
85220,-0.341399997472763,27.1871058796168
85330,-0.341399997472763,27.030851383947
85440,-0.341192841529846,27.0829337182426
85550,-0.340364187955856,27.3954352167992
85650,-0.340364187955856,27.6558543810602
85760,-0.340571343898773,27.7600265424343
85870,-0.342021465301514,27.7079442081387
85980,-0.341399997472763,27.8641912110255
86090,-0.340157032012939,28.2808573781733
86200,-0.340985685586929,28.3850220467646
86310,-0.341399997472763,28.332939712469
86420,-0.342021465301514,27.9683558796168
86530,-0.341399997472763,27.8641912110255
86640,-0.34160715341568,27.9683558796168
86750,-0.342021465301514,27.7600265424343
86860,-0.339949876070023,28.0204457066953
86970,-0.340571343898773,28.0725280409909
87070,-0.34160715341568,28.1246103752865
87180,-0.342021465301514,27.9683633723997
87290,-0.342021465301514,27.8121163695129
87400,-0.342021465301514,27.7600340352173
87510,-0.34160715341568,27.8121163695129
87620,-0.341814309358597,27.6037870323305
87730,-0.340364187955856,27.6558693666261
87840,-0.341399997472763,27.6037870323305
87950,-0.341814309358597,27.395457695148
88060,-0.34243580698967,27.2392031994783
88170,-0.340985685586929,27.2392031994783
88280,-0.341192841529846,27.4996148709563
88380,-0.340985685586929,27.3954427095821
88490,-0.342642962932587,27.0829412110255
88600,-0.340985685586929,27.0829412110255
88710,-0.34160715341568,26.9266942081387
88820,-0.34160715341568,26.8746118738431
88930,-0.34077849984169,27.0829487038085
89040,-0.341399997472763,27.0829487038085
89150,-0.340364187955856,27.1350310381041
89260,-0.34160715341568,27.0308663695129
89370,-0.34160715341568,26.9787840352173
89480,-0.340571343898773,27.0829561965914
89590,-0.341192841529846,27.1871208651827
89700,-0.341399997472763,27.1350385308871
89800,-0.342021465301514,26.874626859409
89910,-0.34160715341568,26.6662900294436
90020,-0.341814309358597,26.5621253608524
90130,-0.341192841529846,26.874626859409
90240,-0.341399997472763,26.9267091937046
90350,-0.341192841529846,26.7704546980349
90460,-0.339949876070023,27.0308738622958
90570,-0.341814309358597,27.0829561965914
90680,-0.341192841529846,27.1350385308871
90790,-0.340985685586929,27.2912855337739
90900,-0.341192841529846,27.5516972052519
91010,-0.340364187955856,27.7600340352173
91120,-0.34160715341568,27.6558693666261
91220,-0.340985685586929,27.7079517009217
91330,-0.342021465301514,27.7600340352173
91440,-0.34243580698967,27.5516972052519
91550,-0.341192841529846,27.7079442081387
91660,-0.341192841529846,28.0725280409909
91770,-0.340985685586929,28.1246103752865
91880,-0.341814309358597,27.9683633723997
91990,-0.342021465301514,27.6558618738431
92100,-0.34243580698967,27.4996073781733
92210,-0.34077849984169,27.6558618738431
92320,-0.342021465301514,27.5516972052519
92430,-0.34077849984169,27.6037870323305
92530,-0.341399997472763,27.7079517009217
92640,-0.34160715341568,27.5517046980349
92750,-0.34160715341568,27.6558693666261
92860,-0.340571343898773,27.9162885308871
92970,-0.342021465301514,27.7600415280002
93080,-0.341814309358597,27.395457695148
93190,-0.342228621244431,27.13504602367
93300,-0.34243580698967,26.7183723637392
93410,-0.34243580698967,26.2496163695129
93520,-0.341192841529846,26.0933618738431
93630,-0.341399997472763,26.1454442081387
93740,-0.341399997472763,26.1454442081387
93850,-0.341192841529846,25.7808603752865
93950,-0.342021465301514,25.7808603752865
94060,-0.341399997472763,25.5204412110255
94170,-0.342021465301514,25.3121118738431
94280,-0.340985685586929,25.4683588767299
94390,-0.340985685586929,25.4683588767299
94500,-0.340985685586929,25.5204412110255
94610,-0.340364187955856,25.3641942081387
94720,-0.341814309358597,25.2600295395475
94830,-0.341399997472763,25.5204487038085
94940,-0.342228621244431,25.4162840352173
95050,-0.34077849984169,25.5725385308871
95160,-0.341192841529846,25.6246208651827
95260,-0.341192841529846,25.4683663695129
95370,-0.34160715341568,25.2079472052519
95480,-0.339949876070023,25.7808603752865
95590,-0.341399997472763,25.8850250438777
95700,-0.341192841529846,25.728770548208
95810,-0.340571343898773,25.8850250438777
95920,-0.34243580698967,25.6766882139124
96030,-0.340571343898773,26.0412720467646
96140,-0.340571343898773,26.5621103752865
96250,-0.34243580698967,26.3537735453211
96360,-0.340985685586929,26.3016837182426
96470,-0.341192841529846,26.4579307211294
96580,-0.340985685586929,26.6662600583118
96680,-0.34160715341568,26.510013055425
96790,-0.34077849984169,26.9787690496514
96900,-0.34160715341568,26.9787690496514
97010,-0.341192841529846,27.1870983868338
97120,-0.342021465301514,27.030851383947
97230,-0.341192841529846,27.1350160525382
97340,-0.340985685586929,27.291263055425
97450,-0.342228621244431,27.1870983868338
97560,-0.341814309358597,27.030851383947
97670,-0.340571343898773,27.3433528825036
97780,-0.341399997472763,27.3433528825036
97890,-0.341399997472763,27.1350160525382
97990,-0.340985685586929,27.3433453897206
98100,-0.34160715341568,27.291263055425
98210,-0.342021465301514,27.0829337182426
98320,-0.34305727481842,26.7183498853904
98430,-0.341399997472763,26.9266792225728
98540,-0.340571343898773,26.9787615568684
98650,-0.340985685586929,27.2912555626421
98760,-0.341192841529846,27.6037570611987
98870,-0.341399997472763,27.3433378969377
98980,-0.341399997472763,27.4475025655289
99090,-0.341399997472763,27.6558319027113
99200,-0.341814309358597,27.5516672341201
99310,-0.341192841529846,27.6037495684157
99410,-0.341814309358597,27.4475025655289
99520,-0.340157032012939,27.4995848998245
99630,-0.34243580698967,26.9787465713025
99740,-0.340157032012939,27.0829112398937
99850,-0.341192841529846,27.2912405770762
99960,-0.341399997472763,27.2912405770762
100070,-0.342021465301514,26.8224920756327
100180,-0.341192841529846,26.7704097413371
100290,-0.341814309358597,26.6662450727459
100400,-0.341192841529846,26.8745744099284
100510,-0.340985685586929,26.9787390785196
100620,-0.34160715341568,26.9787390785196
100720,-0.34160715341568,27.0829037471108
100830,-0.34160715341568,26.666237579963
100940,-0.34160715341568,26.405818415702
101050,-0.341399997472763,26.4579007499976
101160,-0.341192841529846,26.66623008718
101270,-0.340985685586929,26.9266417586581
101380,-0.341192841529846,27.1349710958405
101490,-0.341399997472763,27.1870534301361
101600,-0.341814309358597,27.1870534301361
101710,-0.341192841529846,26.9787166001707
101820,-0.340985685586929,27.0828812687619
101930,-0.341192841529846,27.2391282716487
102040,-0.340364187955856,27.7599666001707
102140,-0.34160715341568,27.6037195972839
102250,-0.34160715341568,27.4995549286927
102360,-0.341399997472763,27.3953902601015
102470,-0.341192841529846,27.7599740929537
102580,-0.340571343898773,27.8641462543278
102690,-0.34077849984169,28.0724830842932
102800,-0.342228621244431,27.9162360814064
102910,-0.341399997472763,27.7599815857366
103020,-0.341399997472763,27.7599815857366
103130,-0.34160715341568,27.44748008718
103240,-0.341192841529846,27.5516447557712
103350,-0.340571343898773,27.8120639200322
103450,-0.341192841529846,27.6558094243625
103560,-0.342850118875504,27.2391432572147
103670,-0.340985685586929,27.3433079258059
103780,-0.341399997472763,27.4995549286927
103890,-0.340985685586929,27.6558019315795
104000,-0.34160715341568,27.7078842658751
104110,-0.341814309358597,27.5516372629883
104220,-0.34160715341568,27.4995549286927
104330,-0.341399997472763,27.4474725943971
104440,-0.341192841529846,27.1349710958405
104550,-0.342021465301514,27.0828887615449
104660,-0.341399997472763,27.0308064272493
104770,-0.340985685586929,27.0308064272493
104870,-0.340571343898773,27.187060922919
104980,-0.341814309358597,26.8224770900668
105090,-0.34160715341568,26.8224770900668
105200,-0.340985685586929,26.8224770900668
105310,-0.340571343898773,27.187060922919
105420,-0.341814309358597,27.3433154185888
105530,-0.341192841529846,27.3433154185888
105640,-0.342021465301514,27.1349860814064
105750,-0.342021465301514,26.8745744099284
105860,-0.342021465301514,26.8224920756327
105970,-0.342228621244431,26.7704097413371
106080,-0.34077849984169,27.1870834012679
106180,-0.340985685586929,27.1349935741893
106290,-0.34077849984169,27.4474950727459
106400,-0.341399997472763,27.2912405770762
106510,-0.34160715341568,27.2391582427806
106620,-0.342228621244431,27.0829112398937
106730,-0.341192841529846,27.187075908485
106840,-0.341192841529846,27.0308214128152
106950,-0.341814309358597,27.0829037471108
107060,-0.34077849984169,27.3433229113718
107170,-0.341399997472763,27.5516522485542
107280,-0.34077849984169,27.968325908485
107390,-0.341192841529846,28.2808274070415
107500,-0.34243580698967,27.968325908485
107600,-0.342021465301514,27.8120789055981
107710,-0.341192841529846,27.8641612398937
107820,-0.34243580698967,27.5516597413371
107930,-0.340985685586929,27.8120714128152
108040,-0.341814309358597,27.707906744224
108150,-0.341399997472763,27.8641537471108
108260,-0.340571343898773,27.968325908485
108370,-0.34160715341568,27.8120789055981
108480,-0.341399997472763,27.7079142370069
108590,-0.340985685586929,27.5516597413371
108700,-0.341814309358597,27.5516597413371
108810,-0.341399997472763,27.5516597413371
108910,-0.341814309358597,27.6558244099284
109020,-0.342021465301514,27.3433229113718
109130,-0.34160715341568,27.2391582427806
109240,-0.34160715341568,27.1349935741893
109350,-0.34160715341568,27.1349935741893
109460,-0.339949876070023,27.1349935741893
109570,-0.341399997472763,27.1349935741893
109680,-0.34305727481842,26.6662450727459
109790,-0.342228621244431,26.2495789055981
109900,-0.341192841529846,26.5620804041547
110010,-0.340364187955856,26.6141627384503
110120,-0.340571343898773,26.6141627384503
110230,-0.342021465301514,26.7183348998245
110330,-0.341399997472763,26.6141702312333
110440,-0.342021465301514,26.4058408940509
110550,-0.342021465301514,26.1454292225728
110660,-0.34077849984169,26.3537660525382
110770,-0.34160715341568,26.1454292225728
110880,-0.341814309358597,26.0933468882772
110990,-0.34243580698967,25.7808453897206
111100,-0.34160715341568,25.8850100583118
111210,-0.34305727481842,25.4162615568684
111320,-0.34160715341568,25.2600145539816
111430,-0.34160715341568,25.4162615568684
111540,-0.340571343898773,25.728763055425
111640,-0.341192841529846,25.5725085597552
111750,-0.34077849984169,25.728763055425
111860,-0.34160715341568,25.6766807211294
111970,-0.340157032012939,25.8850175510948
112080,-0.341399997472763,25.9370998853904
112190,-0.341192841529846,26.1454292225728
112300,-0.341192841529846,26.6141777240162
112410,-0.341814309358597,26.510013055425
112520,-0.342228621244431,26.0933468882772
112630,-0.34160715341568,25.9370998853904
112740,-0.342021465301514,25.728770548208
112850,-0.341399997472763,25.728770548208
112960,-0.341399997472763,25.728770548208
113060,-0.34160715341568,25.6766882139124
113170,-0.341814309358597,25.6766882139124
113280,-0.34160715341568,25.5725235453211
113390,-0.341192841529846,25.728770548208
113500,-0.341814309358597,25.3121043810602
113610,-0.340571343898773,25.7808603752865
113720,-0.340364187955856,25.7287780409909
113830,-0.34077849984169,25.8329502023651
113940,-0.341399997472763,25.8329502023651
114050,-0.340571343898773,26.1975340352173
114160,-0.341399997472763,26.1454517009217
114270,-0.341399997472763,26.2496163695129
114370,-0.34160715341568,26.1454517009217
114480,-0.341814309358597,25.9371223637392
114590,-0.341814309358597,25.8850400294436
114700,-0.342228621244431,25.7287930265568
114810,-0.340364187955856,26.0412945251134
114920,-0.341814309358597,25.9892121908178
115030,-0.34160715341568,25.9371298565222
115140,-0.341399997472763,25.8850475222266
115250,-0.340571343898773,25.9892196836008
115360,-0.341814309358597,25.8329726807139
115470,-0.341192841529846,25.8850550150095
115580,-0.340985685586929,26.093384352192
115690,-0.342021465301514,25.8850550150095
115790,-0.342228621244431,25.5725610092359
115900,-0.342021465301514,25.3642316720535
116010,-0.34243580698967,24.8433933435315
116120,-0.340985685586929,24.9996403464183
116230,-0.339121222496033,25.6246433435315
116340,-0.341399997472763,25.6246433435315
116450,-0.34160715341568,25.5204786749403
116560,-0.342021465301514,25.1558948420881
116670,-0.340985685586929,25.1038050150095
116780,-0.34160715341568,25.2600520178964
116890,-0.340985685586929,25.3642166864876
117000,-0.341192841529846,25.4162990207832
117100,-0.34160715341568,25.4162990207832
117210,-0.340985685586929,25.4683813550788
117320,-0.341399997472763,25.2600445251134
117430,-0.341192841529846,25.2600445251134
117540,-0.341399997472763,25.6246283579656
117650,-0.34077849984169,25.6767181850442
117760,-0.339121222496033,26.2496388478617
117870,-0.340985685586929,26.2496388478617
117980,-0.340157032012939,26.6142226807139
118090,-0.341192841529846,26.7704696836008
118200,-0.341192841529846,26.874634352192
118310,-0.340985685586929,26.9787990207832
118420,-0.341814309358597,26.8225520178964
118520,-0.341192841529846,27.0308813550788
118630,-0.340571343898773,27.2392181850442
118740,-0.34160715341568,27.0829711821573
118850,-0.341399997472763,26.874634352192
118960,-0.341192841529846,27.0308813550788
119070,-0.342021465301514,26.9267166864876
119180,-0.340985685586929,26.9267166864876
119290,-0.341399997472763,26.7183798565222
119400,-0.339742720127106,27.2392106922612
119510,-0.34077849984169,27.3433828536354
119620,-0.340985685586929,27.6037945251134
119730,-0.34077849984169,27.91629602367
119830,-0.342228621244431,27.8642136893744
119940,-0.340985685586929,28.176707695148
120050,-0.340364187955856,28.2808723637392
120160,-0.340571343898773,28.3850445251134
120270,-0.339949876070023,28.5933738622958
120380,-0.34160715341568,28.5412915280002
120490,-0.34160715341568,28.5412915280002
120600,-0.34077849984169,28.9058753608524
120710,-0.341399997472763,28.8537930265568
120820,-0.342021465301514,28.6454636893744
120930,-0.342021465301514,28.5933813550788
121040,-0.34077849984169,28.5933813550788
121150,-0.341192841529846,28.6454636893744
121250,-0.341192841529846,28.5412915280002
121360,-0.340364187955856,28.7496283579656
121470,-0.341399997472763,29.0100475222266
121580,-0.341399997472763,29.1662945251134
121690,-0.342021465301514,28.957965187931
121800,-0.34160715341568,29.1663020178964
121910,-0.34160715341568,29.0100550150095
122020,-0.34077849984169,29.2704741792705
122130,-0.341399997472763,29.2704741792705
122240,-0.341814309358597,28.9579726807139
122350,-0.341399997472763,29.0100550150095
122460,-0.340571343898773,29.2183918449749
122560,-0.340157032012939,29.4267286749403
122670,-0.341814309358597,29.4267286749403
122780,-0.342228621244431,29.2183993377579
122890,-0.342228621244431,29.1142346691667
123000,-0.341192841529846,29.3225640063491
123110,-0.341814309358597,29.2704816720535
123220,-0.34160715341568,29.2704816720535
123330,-0.341399997472763,29.3225640063491
123440,-0.341399997472763,28.9579801734969
123550,-0.341399997472763,28.9579801734969
123660,-0.34243580698967,29.1142271763837
123770,-0.341814309358597,29.2183918449749
123880,-0.341814309358597,29.0621448420881
123980,-0.342228621244431,28.5933963406447
124090,-0.341814309358597,28.2808948420881
124200,-0.342228621244431,28.2288125077925
124310,-0.342228621244431,28.0204831706101
124420,-0.342021465301514,28.0204831706101
124530,-0.340985685586929,28.2808948420881
124640,-0.34243580698967,27.8642211821573
124750,-0.341814309358597,27.8121388478617
124860,-0.341192841529846,27.9683858507486
124970,-0.341192841529846,28.2808873493052
125080,-0.342021465301514,28.1767226807139
125190,-0.341192841529846,28.6454711821573
125290,-0.341399997472763,28.6975535164529
125400,-0.341814309358597,28.6454711821573
125510,-0.34077849984169,28.5933888478617
125620,-0.34160715341568,28.4892241792705
125730,-0.34077849984169,28.4892241792705
125840,-0.34243580698967,28.2808873493052
125950,-0.342228621244431,27.7600565135661
126060,-0.340985685586929,27.8642211821573
126170,-0.34243580698967,27.5517196836008
126280,-0.342021465301514,27.3433903464183
126390,-0.341192841529846,27.4996373493052
126500,-0.341192841529846,27.7600490207832
126610,-0.341814309358597,27.7079666864876
126710,-0.34077849984169,28.0204681850442
126820,-0.341814309358597,27.9163035164529
126930,-0.341192841529846,27.9683858507486
127050,-0.34077849984169,28.1767226807139
127150,-0.342228621244431,28.0725580121227
127260,-0.342642962932587,27.8121388478617
127370,-0.341814309358597,27.6558918449749
127480,-0.341814309358597,27.6558918449749
127590,-0.34243580698967,27.1871358507486
127700,-0.341814309358597,26.8225520178964
127810,-0.342228621244431,26.4579681850442
127920,-0.341399997472763,26.4579681850442
128020,-0.342228621244431,26.0413020178964
128130,-0.342021465301514,25.8850550150095
128240,-0.341814309358597,25.7808903464183
128350,-0.341814309358597,25.7288080121227
128460,-0.34160715341568,25.7808903464183
128570,-0.34243580698967,25.6246358507486
128680,-0.340157032012939,26.1454666864876
128790,-0.34243580698967,25.6246283579656
128900,-0.34160715341568,25.6767106922612
129010,-0.34077849984169,25.8850475222266
129120,-0.34160715341568,25.832965187931
129230,-0.342021465301514,25.4683813550788
129340,-0.34160715341568,25.5204636893744
129440,-0.341399997472763,25.4683813550788
129550,-0.341399997472763,25.3642166864876
129660,-0.34160715341568,25.4683813550788
129770,-0.341399997472763,25.6767106922612
129880,-0.340985685586929,25.9371223637392
129990,-0.342021465301514,26.0412945251134
130100,-0.340571343898773,26.1454666864876
130210,-0.340985685586929,25.6767106922612
130320,-0.342021465301514,25.5204636893744
130430,-0.342021465301514,25.4162990207832
130540,-0.341399997472763,25.57254602367
130650,-0.34160715341568,25.4162990207832
130750,-0.34160715341568,25.4162990207832
130860,-0.341814309358597,25.2079696836008
130970,-0.342021465301514,24.9996403464183
131080,-0.341814309358597,24.9475580121227
131190,-0.341814309358597,24.7392286749403
131300,-0.342850118875504,24.3746448420881
131410,-0.34160715341568,24.2704801734969
131520,-0.341192841529846,24.3225625077925
131630,-0.34077849984169,24.3225625077925
131740,-0.34077849984169,23.9058963406447
131850,-0.34077849984169,23.9579861677232
131960,-0.340571343898773,23.853821499132
132070,-0.341814309358597,23.6975744962452
132170,-0.341192841529846,23.6975744962452
132280,-0.341814309358597,23.4892451590628
132390,-0.340985685586929,23.6975744962452
132500,-0.342642962932587,23.332990663393
132610,-0.341399997472763,23.1246538334276
132720,-0.340985685586929,23.2809008363145
132830,-0.341814309358597,23.1767361677232
132940,-0.340571343898773,23.332990663393
133050,-0.340985685586929,23.5934023348711
133160,-0.341399997472763,23.4892376662798
133270,-0.340985685586929,23.5934023348711
133380,-0.34243580698967,22.9163170034623
133480,-0.340364187955856,23.0204816720535
133590,-0.341814309358597,22.8121523348711
133700,-0.341814309358597,22.5517331706101
133810,-0.34160715341568,22.7079801734969
133920,-0.341399997472763,22.6038155049057
134030,-0.339742720127106,22.7600625077925
134140,-0.339949876070023,22.9163095106793
134250,-0.34077849984169,22.7079801734969
134360,-0.342642962932587,22.4475610092359
134470,-0.341399997472763,22.4996433435315
134580,-0.340571343898773,22.5517256778271
134690,-0.34160715341568,22.4996433435315
134800,-0.341399997472763,22.6558903464183
134900,-0.342642962932587,22.4996358507486
135010,-0.341814309358597,22.2392166864876
135120,-0.34160715341568,22.1350520178964
135230,-0.34077849984169,22.2392241792705
135340,-0.341814309358597,21.8746403464183
135450,-0.34160715341568,21.8225580121227
135560,-0.340364187955856,22.0829771763837
135670,-0.341814309358597,22.1350595106793
135780,-0.342021465301514,22.0308948420881
135890,-0.341399997472763,22.0829771763837
136000,-0.34160715341568,21.8746403464183
136110,-0.341399997472763,21.8746403464183
136210,-0.34243580698967,21.7183858507486
136320,-0.342228621244431,21.5100565135661
136430,-0.343264430761337,20.8329711821573
136540,-0.342021465301514,20.3642226807139
136650,-0.34243580698967,20.2079681850442
136760,-0.341814309358597,20.3121328536354
136870,-0.340985685586929,20.624626859409
136980,-0.341399997472763,20.5725445251134
137090,-0.342021465301514,20.5204621908178
137200,-0.34160715341568,20.5204621908178
137310,-0.340571343898773,20.7287990207832
137420,-0.34243580698967,20.4683798565222
137530,-0.342228621244431,20.2600505193398
137630,-0.340985685586929,20.624634352192
137740,-0.341192841529846,20.7808813550788
137850,-0.341399997472763,20.88504602367
137960,-0.342021465301514,20.9371283579656
138070,-0.341399997472763,21.0412930265568
138180,-0.341399997472763,21.2496223637392
138290,-0.340571343898773,21.666288530887
138400,-0.34243580698967,21.5621163695129
138510,-0.340985685586929,21.5621163695129
138620,-0.342021465301514,21.666288530887
138730,-0.342228621244431,21.5621238622958
138840,-0.341399997472763,21.5100415280002
138940,-0.340364187955856,21.7183783579656
139050,-0.340364187955856,22.1350445251134
139160,-0.340985685586929,22.187126859409
139270,-0.340985685586929,22.2912915280002
139380,-0.34160715341568,22.3433738622958
139490,-0.340985685586929,22.2912840352173
139600,-0.342021465301514,22.1871193666261
139710,-0.340364187955856,22.2912840352173
139820,-0.34077849984169,22.707957695148
139930,-0.34160715341568,22.8642046980349
140040,-0.340985685586929,22.8642046980349
140150,-0.341192841529846,23.1767061965914
140260,-0.340985685586929,23.4371178680695
140360,-0.342228621244431,23.1767061965914
140470,-0.342228621244431,22.9162945251134
140580,-0.34077849984169,23.1767136893744
140690,-0.341192841529846,23.0725415280002
140800,-0.341399997472763,23.1767061965914
140910,-0.341192841529846,23.1767061965914
141020,-0.341192841529846,23.0725340352173
141130,-0.34077849984169,23.4371178680695
141240,-0.34160715341568,23.6975370323305
141350,-0.341399997472763,23.8017017009217
141460,-0.341399997472763,23.9058663695129
141570,-0.341192841529846,24.2183678680695
141670,-0.34243580698967,24.0621133723997
141780,-0.342021465301514,24.1141957066953
141890,-0.342021465301514,23.9579487038085
142000,-0.342228621244431,23.9579487038085
142110,-0.341814309358597,24.0100310381041
142220,-0.341192841529846,24.1662780409909
142330,-0.341814309358597,24.1662780409909
142440,-0.342021465301514,24.0621133723997
142550,-0.34160715341568,24.2704502023651
142660,-0.342021465301514,23.8017017009217
142770,-0.341814309358597,23.9579561965914
142880,-0.342228621244431,23.8017091937046
142990,-0.34160715341568,23.5933723637392
143090,-0.341399997472763,23.6454546980349
143200,-0.342021465301514,23.6454546980349
143310,-0.34160715341568,23.6454546980349
143420,-0.342228621244431,23.4371253608524
143530,-0.341399997472763,23.4371253608524
143640,-0.340571343898773,23.6975445251134
143750,-0.34243580698967,23.4371253608524
143860,-0.341814309358597,23.22879602367
143970,-0.340985685586929,23.489207695148
144080,-0.341192841529846,23.3329531994783
144190,-0.341399997472763,23.228788530887
144300,-0.342021465301514,23.228788530887
144400,-0.341192841529846,23.4371178680695
144510,-0.342021465301514,23.2808708651827
144620,-0.342021465301514,23.1767061965914
144730,-0.341192841529846,23.2808708651827
144840,-0.342228621244431,23.1767061965914
144950,-0.342228621244431,23.1246238622958
145060,-0.341192841529846,23.2808708651827
145170,-0.342228621244431,23.1767061965914
145280,-0.341192841529846,23.5933723637392
145390,-0.34160715341568,23.5933723637392
145500,-0.34160715341568,23.489207695148
145610,-0.342021465301514,23.1767061965914
145720,-0.34160715341568,22.9683693666261
145820,-0.342021465301514,22.6558678680695
145930,-0.34243580698967,22.1871118738431
146040,-0.341814309358597,22.1871118738431
146150,-0.342228621244431,21.9267002023651
146260,-0.340364187955856,22.2912840352173
146370,-0.340985685586929,22.2912840352173
146480,-0.340985685586929,22.7079502023651
146590,-0.342021465301514,22.5517031994783
146700,-0.340985685586929,22.5517031994783
146810,-0.340571343898773,22.8642046980349
146920,-0.34160715341568,22.6037855337739
147030,-0.342228621244431,22.2912915280002
147130,-0.341814309358597,22.187126859409
147240,-0.340157032012939,22.3954636893744
147350,-0.340985685586929,22.7600475222266
147460,-0.341192841529846,22.5517106922612
147570,-0.341814309358597,22.5517106922612
147680,-0.341814309358597,22.5517106922612
147790,-0.34160715341568,22.5517106922612
147900,-0.34160715341568,22.4996283579656
148010,-0.341814309358597,21.9787975222266
148120,-0.34077849984169,21.7704681850442
148230,-0.341399997472763,21.6142136893744
148340,-0.34160715341568,21.8746328536354
148450,-0.34160715341568,21.8225505193398
148550,-0.341399997472763,21.6142136893744
148660,-0.341814309358597,21.5621313550788
148770,-0.341814309358597,21.4579666864876
148880,-0.342228621244431,21.5621388478617
148990,-0.34243580698967,21.405884352192
149100,-0.342021465301514,21.3017196836008
149210,-0.340571343898773,21.3538020178964
149320,-0.34160715341568,21.405884352192
149430,-0.34160715341568,21.405884352192
149540,-0.340157032012939,21.4579666864876
149650,-0.342021465301514,21.405884352192
149760,-0.341814309358597,21.4579666864876
149860,-0.341814309358597,21.3538020178964
149970,-0.341192841529846,21.4579666864876
150080,-0.342228621244431,21.2496373493052
150190,-0.341192841529846,21.5621388478617
150300,-0.341192841529846,21.8225505193398
150410,-0.34160715341568,22.2392166864876
150520,-0.34160715341568,22.3433813550788
150630,-0.34160715341568,22.5517181850442
150740,-0.34243580698967,22.3954636893744
150850,-0.34160715341568,22.2392166864876
150960,-0.342021465301514,22.0829696836008
151070,-0.340985685586929,22.3433813550788
151180,-0.342228621244431,22.187134352192
151280,-0.342228621244431,21.7704681850442
151390,-0.34160715341568,21.9788050150095
151500,-0.342021465301514,22.0308873493052
151610,-0.34243580698967,21.666303516453
151720,-0.341399997472763,21.6142211821573
151830,-0.34243580698967,21.3538020178964
151940,-0.34077849984169,21.666303516453
152050,-0.341814309358597,21.5621388478617
152160,-0.342021465301514,21.4058918449749
152270,-0.34077849984169,21.3538095106793
152380,-0.341192841529846,21.6663110092359
152490,-0.34160715341568,21.5100640063491
152590,-0.340985685586929,21.7704756778271
152700,-0.341399997472763,21.9788050150095
152810,-0.341192841529846,22.0308873493052
152920,-0.34243580698967,21.5100490207832
153030,-0.340571343898773,21.4579666864876
153140,-0.34077849984169,21.5100565135661
153250,-0.341399997472763,21.4058918449749
153360,-0.340571343898773,21.6663110092359
153470,-0.34160715341568,21.5100640063491
153580,-0.342021465301514,21.5100640063491
153690,-0.340985685586929,21.3538095106793
153800,-0.342021465301514,21.0413080121227
153910,-0.342228621244431,20.8850610092359
154010,-0.340571343898773,20.9892331706101
154120,-0.341814309358597,20.8329861677232
154230,-0.342021465301514,20.5725744962452
154340,-0.34243580698967,20.5204846691667
154450,-0.34160715341568,20.6767316720535
154560,-0.341399997472763,20.5204771763837
154670,-0.342021465301514,20.3121478392013
154780,-0.340571343898773,20.5204846691667
154890,-0.341399997472763,20.4684023348711
155000,-0.341192841529846,20.4684023348711
155110,-0.34243580698967,20.0517286749403
155220,-0.341399997472763,20.1038110092359
155320,-0.340985685586929,20.2079756778271
155430,-0.340985685586929,20.3121403464183
155540,-0.342021465301514,20.1038110092359
155650,-0.341399997472763,20.3642301734969
155760,-0.341399997472763,20.5204771763837
155870,-0.34243580698967,20.4163050150095
155980,-0.342228621244431,20.4163050150095
156090,-0.342021465301514,20.3642226807139
156200,-0.34160715341568,20.2600580121227
156310,-0.34160715341568,20.3121403464183
156420,-0.339949876070023,20.8329711821573
156530,-0.34077849984169,21.0413080121227
156640,-0.340985685586929,21.3017196836008
156740,-0.341192841529846,21.4579666864876
156850,-0.341192841529846,21.7183783579656
156960,-0.341399997472763,21.7704606922612
157070,-0.341814309358597,21.66629602367
157180,-0.341399997472763,21.8225430265568
157290,-0.341399997472763,21.8746253608524
157400,-0.34243580698967,21.8225355337739
157510,-0.34160715341568,21.7704531994783
157620,-0.341192841529846,21.6141987038085
157730,-0.342228621244431,21.666288530887
157840,-0.340985685586929,21.8746178680695
157950,-0.342021465301514,21.6142061965914
158050,-0.342228621244431,21.3537945251134
158160,-0.341192841529846,21.405876859409
158270,-0.34160715341568,21.5100415280002
158380,-0.34077849984169,21.6142136893744
158490,-0.342021465301514,21.6142136893744
158600,-0.341192841529846,21.8225430265568
158710,-0.341399997472763,21.7704606922612
158820,-0.340364187955856,22.2392091937046
158930,-0.342228621244431,22.2392091937046
159040,-0.342021465301514,22.0308798565222
159150,-0.340985685586929,22.3433738622958
159260,-0.34160715341568,22.2392091937046
159370,-0.34160715341568,22.2392091937046
159470,-0.341814309358597,22.187126859409
159580,-0.34077849984169,22.4996283579656
159690,-0.342021465301514,22.3954636893744
159800,-0.341814309358597,22.44754602367
159910,-0.341399997472763,22.707965187931
160020,-0.341399997472763,22.8121298565222
160130,-0.340985685586929,23.1246238622958
160240,-0.342642962932587,22.5517031994783
160350,-0.34160715341568,22.3954561965914
160460,-0.341814309358597,22.187126859409
160570,-0.342228621244431,22.1350445251134
160680,-0.342021465301514,21.8746328536354
160780,-0.341192841529846,21.7183783579656
160890,-0.342850118875504,21.405876859409
161000,-0.34077849984169,21.7704606922612
161110,-0.342021465301514,21.7183783579656
161220,-0.34243580698967,21.145457695148
161330,-0.342228621244431,20.8329636893744
161440,-0.341399997472763,20.7808813550788
161550,-0.341399997472763,20.88504602367
161660,-0.341192841529846,21.0412930265568
161770,-0.342021465301514,20.9371283579656
161880,-0.34077849984169,21.145465187931
161990,-0.340985685586929,21.3537945251134
162100,-0.342228621244431,20.9892106922612
162200,-0.340364187955856,21.2496298565222
162310,-0.340364187955856,21.5621313550788
162420,-0.34160715341568,21.5621313550788
162530,-0.342228621244431,21.3538020178964
162640,-0.342228621244431,21.2496373493052
162750,-0.342021465301514,21.1975550150095
162860,-0.342642962932587,21.0933828536354
162970,-0.340985685586929,21.4579666864876
163080,-0.340364187955856,21.8746328536354
163190,-0.341399997472763,21.66629602367
163300,-0.34160715341568,21.66629602367
163410,-0.34243580698967,21.4579591937046
163510,-0.34160715341568,21.0933753608524
163620,-0.341192841529846,21.3017046980349
163730,-0.343471586704254,20.885038530887
163840,-0.340985685586929,21.0933678680695
163950,-0.341399997472763,21.0412855337739
164060,-0.342228621244431,21.0412855337739
164170,-0.342021465301514,20.8329561965914
164280,-0.34160715341568,20.7287915280002
164390,-0.34077849984169,20.9371283579656
164500,-0.341399997472763,20.9892106922612
164610,-0.341399997472763,21.0412930265568
164720,-0.340364187955856,21.5621313550788
164830,-0.340985685586929,21.7183783579656
164930,-0.342228621244431,21.66629602367
165040,-0.34243580698967,21.3017121908178
165150,-0.340985685586929,21.6142061965914
165260,-0.34160715341568,21.7704531994783
165370,-0.340985685586929,21.9267002023651
165480,-0.340985685586929,22.1871118738431
165590,-0.341399997472763,22.4475310381041
165700,-0.34243580698967,22.1871118738431
165810,-0.341399997472763,22.4475310381041
165920,-0.341399997472763,22.2912765424343
166030,-0.340571343898773,22.6037780409909
166140,-0.34243580698967,22.4996058796168
166240,-0.341399997472763,22.343351383947
166350,-0.341814309358597,22.1871043810602
166460,-0.341399997472763,22.2391867153558
166570,-0.342021465301514,21.9787750438777
166680,-0.341814309358597,21.8746103752865
166790,-0.342850118875504,21.4579442081387
166900,-0.340364187955856,21.9787825366607
167010,-0.341192841529846,21.8225280409909
167120,-0.341399997472763,21.6662735453211
167230,-0.341814309358597,21.5621088767299
167340,-0.340571343898773,21.5621088767299
167450,-0.341399997472763,21.6141912110255
167560,-0.34305727481842,21.3537720467646
167660,-0.341399997472763,21.2496073781733
167770,-0.34077849984169,21.5621088767299
167880,-0.34160715341568,21.7183558796168
167990,-0.341399997472763,21.5100190496514
168100,-0.34160715341568,21.562101383947
168210,-0.34160715341568,21.6662660525382
168320,-0.342850118875504,21.562101383947
168430,-0.341399997472763,21.6141837182426
168540,-0.342228621244431,21.4058543810602
168650,-0.341399997472763,21.562101383947
168760,-0.34243580698967,21.0933453897206
168870,-0.341814309358597,20.9891807211294
168970,-0.34243580698967,20.6766792225728
169080,-0.341399997472763,20.9370983868338
169190,-0.34243580698967,20.6766792225728
169300,-0.342228621244431,20.3641852167992
169410,-0.341192841529846,20.3121028825036
169520,-0.341399997472763,20.4683498853904
169630,-0.341814309358597,20.3641852167992
169740,-0.341192841529846,20.4162675510948
169850,-0.342021465301514,20.5204397124689
169960,-0.34160715341568,20.6766867153558
170070,-0.341192841529846,20.8850160525382
170180,-0.341814309358597,20.8329337182426
170290,-0.341814309358597,20.780851383947
170390,-0.34243580698967,20.1558483868338
170500,-0.340985685586929,20.1037585597552
170610,-0.342021465301514,19.8433468882772
170720,-0.342228621244431,19.5829352167992
170830,-0.34160715341568,19.478770548208
170940,-0.340364187955856,19.7391897124689
171050,-0.341814309358597,19.7391897124689
171160,-0.341399997472763,19.7391897124689
171270,-0.342228621244431,19.5308603752865
171380,-0.34160715341568,19.7391972052519
171490,-0.34243580698967,19.5308603752865
171600,-0.341192841529846,19.5308603752865
171710,-0.340985685586929,19.8433543810602
171810,-0.342021465301514,19.5829427095821
171920,-0.342021465301514,19.5829427095821
172030,-0.342228621244431,19.5829427095821
172140,-0.341399997472763,19.5308603752865
172250,-0.342021465301514,19.4266957066953
172360,-0.341399997472763,19.2704412110255
172470,-0.341814309358597,19.3225235453211
172580,-0.342021465301514,19.1141942081387
172690,-0.342228621244431,18.9058648709563
172800,-0.341399997472763,18.6454457066953
172910,-0.342228621244431,18.6454457066953
173020,-0.341399997472763,18.8016927095821
173120,-0.340571343898773,18.9058648709563
173230,-0.340571343898773,19.1662840352173
173340,-0.34077849984169,19.3746208651827
173450,-0.340157032012939,19.7912870323305
173560,-0.341814309358597,19.5308678680695
173670,-0.341814309358597,19.5829502023651
173780,-0.342642962932587,19.3746133723997
173890,-0.341192841529846,19.4266957066953
174000,-0.340985685586929,19.5308603752865
174110,-0.342228621244431,19.2183663695129
174220,-0.341814309358597,19.4267031994783
174330,-0.341399997472763,19.4787855337739
174440,-0.34160715341568,19.5308678680695
174540,-0.34160715341568,19.6871148709563
174650,-0.341814309358597,19.7391972052519
174760,-0.341399997472763,19.6871148709563
174870,-0.342021465301514,19.8954517009217
174980,-0.341814309358597,19.6350325366607
175090,-0.341399997472763,19.7912795395475
175200,-0.34160715341568,19.9996163695129
175310,-0.341399997472763,20.2079457066953
175420,-0.341814309358597,20.1037810381041
175530,-0.342228621244431,19.8954517009217
175640,-0.341192841529846,19.8954517009217
175750,-0.341192841529846,20.1037810381041
175850,-0.342228621244431,19.7391972052519
175960,-0.342021465301514,19.4787855337739
176070,-0.34160715341568,19.6350325366607
176180,-0.340364187955856,19.6350325366607
176290,-0.34160715341568,19.3225310381041
176400,-0.342642962932587,19.0621118738431
176510,-0.341192841529846,19.3225235453211
176620,-0.34160715341568,19.478770548208
176730,-0.341399997472763,19.6350175510948
176840,-0.342642962932587,19.6350175510948
176950,-0.340985685586929,19.6350175510948
177060,-0.34077849984169,19.5308528825036
177170,-0.34160715341568,19.478770548208
177270,-0.341814309358597,19.4266882139124
177380,-0.342021465301514,19.5308603752865
177490,-0.342642962932587,19.2704412110255
177600,-0.341192841529846,19.2704412110255
177710,-0.341814309358597,19.6871073781733
177820,-0.34160715341568,19.5308603752865
177930,-0.341192841529846,19.5829427095821
178040,-0.342228621244431,19.5829427095821
178150,-0.342228621244431,19.5308603752865
178260,-0.341399997472763,19.5829427095821
178370,-0.341814309358597,19.3225235453211
178480,-0.34243580698967,19.0621043810602
178580,-0.341814309358597,18.9579397124689
178690,-0.341399997472763,18.697520548208
178800,-0.34160715341568,18.5412735453211
178910,-0.342021465301514,18.5933558796168
179020,-0.34243580698967,18.5933558796168
179130,-0.341399997472763,18.4891912110255
179240,-0.34077849984169,18.6975280409909
179350,-0.34160715341568,18.5412810381041
179460,-0.342021465301514,18.2808693666261
179570,-0.340571343898773,18.4892061965914
179680,-0.34243580698967,18.4892061965914
179790,-0.341814309358597,18.3850415280002
179900,-0.341814309358597,18.280876859409
180000,-0.341192841529846,18.1246223637392
180110,-0.342021465301514,18.2287945251134
180220,-0.341814309358597,18.1246298565222
180330,-0.34160715341568,18.1767121908178
180440,-0.341399997472763,18.1767121908178
180550,-0.341192841529846,18.3850415280002
180660,-0.34160715341568,18.4371238622958
180770,-0.342021465301514,18.6454606922612
180880,-0.341399997472763,18.3850415280002
180990,-0.340985685586929,18.4371238622958
181100,-0.34077849984169,18.5933783579656
181210,-0.342228621244431,18.4892136893744
181310,-0.341399997472763,18.280876859409
181420,-0.342021465301514,18.1246298565222
181530,-0.342228621244431,18.3329666864876
181640,-0.342228621244431,18.1246373493052
181750,-0.340571343898773,18.1767196836008
181860,-0.342021465301514,18.0725550150095
181970,-0.342228621244431,17.8642256778271
182080,-0.341399997472763,17.9163080121227
182190,-0.34243580698967,17.7079711821573
182300,-0.340985685586929,18.1767196836008
182410,-0.341399997472763,18.1767196836008
182520,-0.342021465301514,18.2288020178964
182630,-0.341192841529846,18.280884352192
182730,-0.340985685586929,18.6454681850442
182840,-0.341399997472763,18.7496328536354
182950,-0.341814309358597,18.9058873493052
183060,-0.342642962932587,18.5933858507486
183170,-0.340364187955856,19.1142241792705
183280,-0.341814309358597,19.2183888478617
183390,-0.34160715341568,19.1142241792705
183500,-0.341399997472763,19.1142241792705
183610,-0.34243580698967,18.9579696836008
183720,-0.34160715341568,18.8538050150095
183830,-0.341192841529846,19.062134352192
183940,-0.341192841529846,19.1662990207832
184040,-0.342021465301514,18.9579696836008
184150,-0.34160715341568,19.0100520178964
184260,-0.34160715341568,19.062134352192
184370,-0.342642962932587,19.0100520178964
184480,-0.341192841529846,18.9579696836008
184590,-0.34160715341568,19.062134352192
184700,-0.341192841529846,19.32254602367
184810,-0.342021465301514,19.2183813550788
184920,-0.341192841529846,19.0100445251134
185030,-0.34160715341568,19.062126859409
185140,-0.342850118875504,18.6975430265568
185250,-0.342021465301514,18.7496253608524
185360,-0.34160715341568,18.7496253608524
185460,-0.341399997472763,19.0100445251134
185570,-0.340364187955856,19.2183813550788
185680,-0.342021465301514,18.9579696836008
185790,-0.340985685586929,19.2183813550788
185900,-0.342228621244431,19.1662990207832
186010,-0.34077849984169,19.5308828536354
186120,-0.341192841529846,19.582965187931
186230,-0.341192841529846,19.7912945251134
186340,-0.341814309358597,19.6871298565222
186450,-0.34077849984169,19.9475490207832
186560,-0.341814309358597,19.9996313550788
186670,-0.340985685586929,20.3121253608524
186770,-0.34160715341568,20.2600430265568
186880,-0.342228621244431,20.2600430265568
186990,-0.34160715341568,20.2079606922612
187100,-0.342228621244431,19.7912945251134
187210,-0.341399997472763,19.582957695148
187320,-0.342228621244431,19.2183738622958
187430,-0.34160715341568,18.8537900294436
187540,-0.341814309358597,18.8537900294436
187650,-0.342021465301514,18.801707695148
187760,-0.341399997472763,19.1142091937046
187870,-0.341192841529846,19.1142091937046
187980,-0.340985685586929,19.1142091937046
188090,-0.341192841529846,19.3746208651827
188190,-0.341399997472763,19.4787855337739
188300,-0.34160715341568,19.4267031994783
188410,-0.341192841529846,19.5308678680695
188520,-0.34243580698967,19.3225310381041
188630,-0.341399997472763,19.4266957066953
188740,-0.341399997472763,19.4266957066953
188850,-0.341399997472763,19.5829427095821
188960,-0.341399997472763,19.6871073781733
189070,-0.343264430761337,19.2183588767299
189180,-0.341192841529846,19.3225235453211
189290,-0.34077849984169,19.4787780409909
189400,-0.342850118875504,19.2183588767299
189500,-0.342021465301514,19.2704412110255
189610,-0.340571343898773,19.4266957066953
189720,-0.341399997472763,19.3746133723997
189830,-0.342228621244431,19.3746133723997
189940,-0.34160715341568,19.4787780409909
190050,-0.340985685586929,19.6350250438777
190160,-0.34160715341568,19.3225235453211
190270,-0.34160715341568,19.3225235453211
190380,-0.34243580698967,19.3746058796168
190490,-0.34243580698967,19.0621043810602
190600,-0.34077849984169,19.2704412110255
190710,-0.341192841529846,19.3225235453211
190820,-0.342228621244431,19.4266957066953
190920,-0.342021465301514,19.1662840352173
191030,-0.34077849984169,19.1662840352173
191140,-0.341192841529846,19.2704487038085
191250,-0.34160715341568,19.3225310381041
191360,-0.341192841529846,19.5308603752865
191470,-0.341814309358597,19.7391972052519
191580,-0.34160715341568,19.6350325366607
191690,-0.342021465301514,19.5829502023651
191800,-0.342228621244431,19.4267031994783
191910,-0.34160715341568,19.322538530887
192020,-0.341192841529846,19.5829502023651
192130,-0.34160715341568,19.7391972052519
192230,-0.340985685586929,19.8433618738431
192340,-0.342642962932587,19.6350250438777
192450,-0.342228621244431,19.6871148709563
192560,-0.341399997472763,19.7912795395475
192670,-0.341814309358597,19.6871148709563
192780,-0.341399997472763,19.7391972052519
192890,-0.342021465301514,19.7391972052519
193000,-0.342228621244431,19.7912870323305
193110,-0.342021465301514,19.6350400294436
193220,-0.341399997472763,19.4787855337739
193330,-0.340364187955856,19.7912870323305
193440,-0.342021465301514,19.7912870323305
193550,-0.342228621244431,19.3746208651827
193650,-0.341814309358597,19.5308753608524
193760,-0.341399997472763,19.6350400294436
193870,-0.340985685586929,19.8433693666261
193980,-0.342228621244431,19.582957695148
194090,-0.341192841529846,19.7912870323305
194200,-0.342021465301514,19.7392046980349
194310,-0.341399997472763,19.7912870323305
194420,-0.341192841529846,19.8433693666261
194530,-0.341192841529846,19.8433693666261
194640,-0.34160715341568,19.8433693666261
194750,-0.340985685586929,20.1037810381041
194860,-0.34160715341568,20.0516987038085
194960,-0.340985685586929,20.0516987038085
195070,-0.342021465301514,19.7391972052519
195180,-0.34160715341568,19.8954442081387
195290,-0.34077849984169,20.0516987038085
195400,-0.342642962932587,19.8954442081387
195510,-0.34077849984169,20.2600280409909
195620,-0.341192841529846,20.5204397124689
195730,-0.341192841529846,20.3641852167992
195840,-0.34160715341568,20.4683498853904
195950,-0.341192841529846,20.7287615568684
196060,-0.340985685586929,20.8329262254596
196170,-0.34243580698967,20.8329262254596
196280,-0.341399997472763,20.7287615568684
196380,-0.34243580698967,20.4683423926074
196490,-0.342228621244431,20.4162600583118
196600,-0.34160715341568,20.3120953897206
196710,-0.34160715341568,20.1558483868338
196820,-0.342228621244431,19.9475190496514
196930,-0.34077849984169,20.2079382139124
197040,-0.340571343898773,20.7287765424343
197150,-0.34243580698967,20.2079382139124
197260,-0.341814309358597,20.2079382139124
197370,-0.34077849984169,20.4162750438777
197480,-0.34160715341568,20.3641927095821
197590,-0.340571343898773,20.8329487038085
197690,-0.342021465301514,20.7287840352173
197800,-0.340571343898773,20.885038530887
197910,-0.341399997472763,20.8329561965914
198020,-0.34077849984169,21.145457695148
198130,-0.340985685586929,21.3017046980349
198240,-0.342642962932587,21.0412855337739
198350,-0.342021465301514,21.1975400294436
198460,-0.342642962932587,20.8329561965914
198570,-0.341814309358597,20.7808738622958
198680,-0.342228621244431,20.5204621908178
198790,-0.340985685586929,20.7808738622958
198900,-0.342228621244431,20.5204621908178
199010,-0.342021465301514,20.4162975222266
199110,-0.342228621244431,20.5725520178964
199220,-0.342228621244431,20.5204696836008
199330,-0.34243580698967,20.3121328536354
199440,-0.341399997472763,20.3121328536354
199550,-0.34243580698967,19.7912945251134
199660,-0.342228621244431,19.7392121908178
199770,-0.341399997472763,19.6350475222266
199880,-0.342021465301514,19.6871298565222
199990,-0.341399997472763,19.5308753608524
200100,-0.341399997472763,19.4787930265568
200210,-0.340985685586929,19.5308753608524
200320,-0.341399997472763,19.6350400294436
200420,-0.340571343898773,19.6871223637392
200530,-0.341814309358597,19.6871223637392
200640,-0.34160715341568,19.5308753608524
200750,-0.342642962932587,19.2704561965914
200860,-0.342228621244431,19.2704561965914
200970,-0.341814309358597,19.2183738622958
201080,-0.342228621244431,19.2183738622958
201190,-0.342228621244431,19.0100445251134
201300,-0.340985685586929,19.322538530887
201410,-0.341814309358597,19.2704561965914
201520,-0.342850118875504,19.0100370323305
201630,-0.340985685586929,19.2704487038085
201740,-0.341814309358597,19.1662840352173
201840,-0.341399997472763,19.1142017009217
201950,-0.341814309358597,18.9058723637392
202060,-0.341399997472763,18.8537900294436
202170,-0.341192841529846,18.9058723637392
202280,-0.341192841529846,19.0100370323305
202390,-0.34160715341568,18.9058723637392
202500,-0.34160715341568,19.1142091937046
202610,-0.341814309358597,19.0100445251134
202720,-0.34160715341568,18.9579621908178
202830,-0.342228621244431,18.7496328536354
202940,-0.34160715341568,18.6975505193398
203050,-0.342021465301514,19.0100520178964
203150,-0.343264430761337,18.4892211821573
203260,-0.341814309358597,18.2288020178964
203370,-0.340985685586929,18.6975505193398
203480,-0.34160715341568,18.801715187931
203590,-0.34243580698967,18.3329591937046
203700,-0.341399997472763,18.3329591937046
203810,-0.342228621244431,18.3329591937046
203920,-0.341192841529846,18.4371238622958
204030,-0.342642962932587,18.020457695148
204140,-0.341814309358597,17.9683753608524
204250,-0.34077849984169,18.1767121908178
204360,-0.341192841529846,18.4892136893744
204470,-0.341192841529846,18.801715187931
204570,-0.34243580698967,18.3850415280002
204680,-0.340364187955856,18.5933783579656
204790,-0.341399997472763,18.801707695148
204900,-0.342021465301514,18.801707695148
205010,-0.342228621244431,18.4371238622958
205120,-0.342228621244431,18.1767121908178
205230,-0.340985685586929,18.3329591937046
205340,-0.34160715341568,18.2287945251134
205450,-0.34160715341568,18.280876859409
205560,-0.340985685586929,18.4371238622958
205670,-0.34243580698967,18.3329517009217
205780,-0.341814309358597,18.4371163695129
205880,-0.341399997472763,18.4891987038085
205990,-0.342228621244431,18.2287870323305
206100,-0.341814309358597,18.1767046980349
206210,-0.341814309358597,17.9683753608524
206320,-0.34160715341568,18.2287945251134
206430,-0.34077849984169,18.5933783579656
206540,-0.342021465301514,18.4371313550788
206650,-0.341399997472763,18.54129602367
206760,-0.342021465301514,18.3850490207832
206870,-0.34160715341568,18.4892136893744
206980,-0.341399997472763,18.6975430265568
207090,-0.342228621244431,18.6454606922612
207200,-0.340985685586929,18.7496253608524
207300,-0.340985685586929,18.5933708651827
207410,-0.34160715341568,18.6975355337739
207520,-0.342021465301514,18.7496178680695
207630,-0.342228621244431,18.6454531994783
207740,-0.341192841529846,18.6975355337739
207850,-0.341192841529846,18.6454531994783
207960,-0.340985685586929,18.9579472052519
208070,-0.341192841529846,18.9579472052519
208180,-0.34160715341568,19.0621118738431
208290,-0.34243580698967,18.8016927095821
208400,-0.341399997472763,18.7496103752865
208510,-0.34077849984169,18.8537825366607
208610,-0.34160715341568,18.8537825366607
208720,-0.341814309358597,18.6454531994783
208830,-0.341399997472763,18.6975355337739
208940,-0.34160715341568,18.541288530887
209050,-0.341192841529846,18.7496178680695
209160,-0.34305727481842,18.3850340352173
209270,-0.341399997472763,18.2287795395475
209380,-0.342228621244431,18.3329517009217
209490,-0.341814309358597,18.0725325366607
209600,-0.342021465301514,17.8642031994783
209710,-0.341814309358597,17.7079561965914
209820,-0.34243580698967,17.4996193666261
209930,-0.342228621244431,17.239207695148
210030,-0.342228621244431,16.9267136893744
210140,-0.340157032012939,17.499634352192
210250,-0.341814309358597,17.3954696836008
210360,-0.341399997472763,17.6558888478617
210470,-0.342228621244431,17.6558888478617
210580,-0.342228621244431,17.4996418449749
210690,-0.34160715341568,17.4996418449749
210800,-0.34160715341568,17.6558888478617
210910,-0.34160715341568,17.4475520178964
211020,-0.342850118875504,16.8746313550788
211130,-0.341399997472763,17.1350505193398
211240,-0.341814309358597,17.1350505193398
211340,-0.343264430761337,16.5100475222266
211450,-0.34243580698967,16.3017106922612
211560,-0.340985685586929,16.197538530887
211670,-0.34243580698967,16.0933663695129
211780,-0.342642962932587,15.5725280409909
211890,-0.340157032012939,15.8850295395475
212000,-0.342021465301514,15.5725280409909
212110,-0.340985685586929,15.5725280409909
212220,-0.34160715341568,15.8329472052519
212330,-0.34077849984169,16.1454487038085
212440,-0.341814309358597,16.3537855337739
212550,-0.342021465301514,16.3017031994783
212660,-0.340985685586929,16.6141972052519
212760,-0.34243580698967,16.2496133723997
212870,-0.340571343898773,16.6662795395475
212980,-0.340571343898773,17.0308633723997
213090,-0.342021465301514,17.0829457066953
213200,-0.34077849984169,17.4475295395475
213310,-0.341192841529846,17.7600310381041
213420,-0.341192841529846,17.8121133723997
213530,-0.34077849984169,18.2287870323305
213640,-0.341192841529846,18.4891987038085
213750,-0.342228621244431,18.2808693666261
213860,-0.342228621244431,18.2287870323305
213970,-0.34160715341568,18.1767046980349
214070,-0.340985685586929,18.2808693666261
214180,-0.34160715341568,18.1246223637392
214290,-0.342228621244431,17.9162930265568
214400,-0.342642962932587,17.3954546980349
214510,-0.34160715341568,17.4475370323305
214620,-0.34160715341568,17.4475370323305
214730,-0.341399997472763,17.760038530887
214840,-0.342021465301514,17.8121208651827
214950,-0.342021465301514,17.760038530887
215060,-0.34077849984169,18.1246223637392
215170,-0.34077849984169,18.4892061965914
215280,-0.341192841529846,18.4371238622958
215390,-0.340985685586929,18.6454531994783
215490,-0.34160715341568,18.9579546980349
215600,-0.342228621244431,18.6454606922612
215710,-0.34160715341568,18.6975430265568
215820,-0.340985685586929,18.801707695148
215930,-0.341399997472763,18.9058723637392
216040,-0.342228621244431,18.6975430265568
216150,-0.34077849984169,18.801715187931
216260,-0.342021465301514,18.5933858507486
216370,-0.342642962932587,18.3329666864876
216480,-0.34243580698967,18.1246298565222
216590,-0.340364187955856,18.4892136893744
216700,-0.341192841529846,18.5933783579656
216800,-0.341814309358597,18.6975430265568
216910,-0.34160715341568,18.6975430265568
217020,-0.340985685586929,18.9579546980349
217130,-0.341814309358597,19.322538530887
217240,-0.341814309358597,19.322538530887
217350,-0.342021465301514,19.062126859409
217460,-0.34160715341568,19.062126859409
217570,-0.341399997472763,19.32254602367
217680,-0.342021465301514,19.1662990207832
217790,-0.340985685586929,19.4787930265568
217900,-0.341399997472763,19.4267106922612
218010,-0.340985685586929,19.843376859409
218120,-0.340571343898773,20.1558783579656
218220,-0.341399997472763,19.9996238622958
218330,-0.342021465301514,19.7912945251134
218440,-0.341192841529846,19.7912945251134
218550,-0.341192841529846,20.10379602367
218660,-0.341399997472763,19.843376859409
218770,-0.340985685586929,19.9475415280002
218880,-0.341192841529846,20.1558708651827
218990,-0.34243580698967,20.1037810381041
219100,-0.34077849984169,20.4683648709563
219210,-0.34077849984169,20.5204546980349
219320,-0.340571343898773,20.7808738622958
219430,-0.340571343898773,21.0412930265568
219530,-0.341192841529846,20.9892106922612
219640,-0.342021465301514,21.0933828536354
219750,-0.341192841529846,21.2496298565222
219860,-0.34243580698967,20.9892106922612
219970,-0.341399997472763,21.1975400294436
220080,-0.340985685586929,21.4058693666261
220190,-0.341399997472763,21.5100340352173
220300,-0.34243580698967,21.3016972052519
220410,-0.342021465301514,20.9891957066953
220520,-0.342228621244431,20.9371133723997
220630,-0.341814309358597,20.8329487038085
220740,-0.341399997472763,20.9891957066953
220850,-0.34160715341568,20.9891957066953
220950,-0.341814309358597,20.8850310381041
221060,-0.34077849984169,21.2496148709563
221170,-0.341814309358597,21.0412855337739
221280,-0.340985685586929,21.0412855337739
221390,-0.341192841529846,21.1454502023651
221500,-0.342850118875504,20.9371133723997
221610,-0.342021465301514,20.9891957066953
221720,-0.341814309358597,20.8329487038085
221830,-0.341814309358597,20.6767017009217
221940,-0.342021465301514,20.4162900294436
222050,-0.342228621244431,20.1558783579656
222160,-0.340985685586929,20.3121253608524
222260,-0.341814309358597,20.4683798565222
222370,-0.342021465301514,20.3121328536354
222480,-0.341399997472763,20.1558783579656
222590,-0.340364187955856,20.4683798565222
222700,-0.34160715341568,20.5204621908178
222810,-0.341399997472763,20.5204621908178
222920,-0.342021465301514,20.4162975222266
223030,-0.340985685586929,20.4683798565222
223140,-0.341814309358597,20.7808813550788
223250,-0.34077849984169,20.9371358507486
223360,-0.342021465301514,20.9892181850442
223470,-0.342228621244431,20.885053516453
223580,-0.341814309358597,20.9371358507486
223680,-0.341814309358597,20.9371358507486
223790,-0.340364187955856,21.4579741792705
223900,-0.342228621244431,21.4579741792705
224010,-0.341814309358597,21.5621388478617
224120,-0.340157032012939,21.5621388478617
224230,-0.34243580698967,21.405884352192
224340,-0.34160715341568,21.3538020178964
224450,-0.340985685586929,21.66629602367
224560,-0.341192841529846,21.926707695148
224670,-0.342021465301514,21.8225430265568
224780,-0.341399997472763,21.8746253608524
224890,-0.341192841529846,21.9787900294436
224990,-0.34160715341568,22.2912915280002
225100,-0.34243580698967,22.0308723637392
225210,-0.342228621244431,21.926707695148
225320,-0.34160715341568,22.3433738622958
225430,-0.34160715341568,22.5517106922612
225540,-0.341192841529846,22.4996283579656
225650,-0.340985685586929,22.8642121908178
225760,-0.34077849984169,23.3329681850442
225870,-0.342228621244431,22.8121373493052
225980,-0.341399997472763,22.968384352192
226090,-0.342228621244431,22.6558903464183
226200,-0.340157032012939,23.0204741792705
226310,-0.34077849984169,23.0204741792705
226410,-0.34160715341568,23.0725565135661
226520,-0.342228621244431,23.0204741792705
226630,-0.340985685586929,23.0204741792705
226740,-0.342021465301514,23.1246463406447
226850,-0.341399997472763,22.9163095106793
226960,-0.341192841529846,22.7600550150095
227070,-0.341399997472763,22.9163020178964
227180,-0.342228621244431,22.5517181850442
227290,-0.341814309358597,22.3954711821573
227400,-0.34077849984169,22.4996433435315
227510,-0.34160715341568,22.2913065135661
227620,-0.342642962932587,21.9267226807139
227720,-0.342228621244431,21.9267226807139
227830,-0.340985685586929,22.2392166864876
227940,-0.34160715341568,22.2392166864876
228050,-0.342021465301514,21.9788050150095
228160,-0.34160715341568,21.9788050150095
228270,-0.341192841529846,22.2392166864876
228380,-0.342228621244431,22.3433888478617
228490,-0.34160715341568,22.3433888478617
228600,-0.34077849984169,22.5517256778271
228710,-0.340157032012939,22.8642271763837
228820,-0.340364187955856,23.2808933435315
228930,-0.342228621244431,23.2288110092359
229040,-0.341399997472763,23.0725565135661
229140,-0.342228621244431,22.7079726807139
229250,-0.341814309358597,22.5517256778271
229360,-0.341814309358597,22.3433963406447
229470,-0.342021465301514,22.2392316720535
229580,-0.341192841529846,22.4996433435315
229690,-0.340571343898773,22.7600625077925
229800,-0.341192841529846,22.7079801734969
229910,-0.34160715341568,22.6558978392013
230020,-0.342228621244431,22.6558978392013
230130,-0.342228621244431,22.2913140063491
230240,-0.341814309358597,22.3433963406447
230350,-0.342021465301514,22.4996508363145
230450,-0.342021465301514,22.6038229976886
230560,-0.341399997472763,22.3434038334276
230670,-0.340985685586929,22.3954861677232
230780,-0.342228621244431,22.291321499132
230890,-0.340985685586929,22.4475685020189
231000,-0.340985685586929,22.4475685020189
231110,-0.34160715341568,22.4996508363145
231220,-0.342228621244431,22.3954861677232
231330,-0.34160715341568,22.4996508363145
231440,-0.340571343898773,22.7600700005754
231550,-0.342228621244431,22.551740663393
231660,-0.341814309358597,22.6038229976886
231770,-0.341399997472763,22.4996583290974
231870,-0.341399997472763,22.4996583290974
231980,-0.34160715341568,22.3434113262106
232090,-0.34243580698967,21.8746553319842
232200,-0.342642962932587,21.5621538334276
232310,-0.340985685586929,21.8225655049057
232420,-0.342228621244431,21.5621538334276
232530,-0.341192841529846,21.5621538334276
232640,-0.341192841529846,21.6142361677232
232750,-0.34243580698967,21.2496523348711
232860,-0.341192841529846,21.2496523348711
232970,-0.341399997472763,21.510071499132
233080,-0.342228621244431,21.1454876662798
233180,-0.34160715341568,20.9371508363145
233290,-0.340985685586929,20.8329786749403
233400,-0.342021465301514,20.4683948420881
233510,-0.34077849984169,20.5725670034623
233620,-0.341814309358597,20.6246493377579
233730,-0.342228621244431,20.3642376662798
233840,-0.341399997472763,20.6246568305408
233950,-0.34160715341568,20.5725744962452
234060,-0.34077849984169,20.6246643233238
234170,-0.34160715341568,20.5725819890282
234280,-0.34160715341568,20.7809188189935
234390,-0.34243580698967,20.6767466576194
234500,-0.341814309358597,20.7809113262106
234600,-0.341399997472763,20.8850759948018
234710,-0.340985685586929,20.989240663393
234820,-0.342228621244431,20.8329936605062
234930,-0.342850118875504,20.5725744962452
235040,-0.34160715341568,20.3642376662798
235150,-0.340364187955856,20.728821499132
235260,-0.342228621244431,20.4163274933584
235370,-0.341399997472763,20.3642451590628
235480,-0.340985685586929,20.8329936605062
235590,-0.342642962932587,20.6767391648364
235700,-0.34160715341568,20.728821499132
235810,-0.340985685586929,20.9371508363145
235910,-0.341192841529846,21.1454801734969
236020,-0.341399997472763,21.3538095106793
236130,-0.340157032012939,21.5621463406447
236240,-0.340985685586929,21.7704756778271
236350,-0.341399997472763,21.9267226807139
236460,-0.341192841529846,21.9788050150095
236570,-0.342021465301514,21.5621388478617
236680,-0.342228621244431,21.4058918449749
236790,-0.34243580698967,21.1454726807139
236900,-0.342642962932587,20.9892181850442
237010,-0.34160715341568,20.8329711821573
237120,-0.34243580698967,20.6767166864876
237230,-0.342021465301514,20.364215187931
237330,-0.341399997472763,20.5204621908178
237440,-0.340985685586929,20.8329561965914
237550,-0.342850118875504,20.5725370323305
237660,-0.34243580698967,20.4162825366607
237770,-0.34160715341568,20.1037810381041
237880,-0.341192841529846,20.3641927095821
237990,-0.340364187955856,20.7287765424343
238100,-0.34077849984169,20.5725295395475
238210,-0.342021465301514,20.6767017009217
238320,-0.342021465301514,20.5725370323305
238430,-0.34243580698967,20.2079531994783
238540,-0.341399997472763,20.1558708651827
238640,-0.341399997472763,20.3121178680695
238750,-0.341192841529846,20.3642002023651
238860,-0.342021465301514,20.1558708651827
238970,-0.341192841529846,20.2600355337739
239080,-0.34243580698967,20.2600355337739
239190,-0.34243580698967,20.2079457066953
239300,-0.342228621244431,20.0516987038085
239410,-0.34243580698967,19.8433618738431
239520,-0.341192841529846,19.8433618738431
239630,-0.34243580698967,19.4787780409909
239740,-0.340571343898773,19.5308603752865
239850,-0.342228621244431,19.5308603752865
239960,-0.34243580698967,19.2704412110255
240060,-0.341192841529846,19.5308528825036
240170,-0.342642962932587,18.9058498853904
240280,-0.341399997472763,18.7495953897206
240390,-0.340571343898773,19.0100145539816
240500,-0.342228621244431,19.0100145539816
240610,-0.34160715341568,18.8537675510948
240720,-0.341814309358597,18.9058498853904
240830,-0.34243580698967,18.6454307211294
240940,-0.341192841529846,18.6454307211294
241050,-0.341814309358597,18.5412660525382
241160,-0.342021465301514,18.5933483868338
241270,-0.34077849984169,18.8537675510948
241370,-0.342021465301514,18.5412660525382
241480,-0.34305727481842,18.176682219686
241590,-0.341399997472763,18.4891837182426
241700,-0.342021465301514,18.5412660525382
241810,-0.342642962932587,18.1245998853904
241920,-0.341814309358597,18.0725175510948
242030,-0.341399997472763,18.2287645539816
242140,-0.342021465301514,18.1245998853904
242250,-0.34077849984169,18.2287720467646
242360,-0.342228621244431,18.2287720467646
242470,-0.341399997472763,18.2808543810602
242580,-0.34160715341568,18.0725175510948
242690,-0.341399997472763,17.7600160525382
242790,-0.34160715341568,17.4475145539816
242900,-0.342021465301514,17.4995968882772
243010,-0.342021465301514,17.3433498853904
243120,-0.341399997472763,17.5516792225728
243230,-0.342228621244431,17.4475145539816
243340,-0.342642962932587,17.2391777240162
243450,-0.341814309358597,17.2912600583118
243560,-0.34243580698967,16.9787585597552
243670,-0.342021465301514,16.614174726903
243780,-0.341814309358597,16.4579277240162
243890,-0.341814309358597,16.4058453897206
244000,-0.34243580698967,16.3537555626421
244100,-0.34243580698967,16.3016657355635
244210,-0.340985685586929,16.5099950727459
244320,-0.341399997472763,16.6662420756328
244430,-0.34077849984169,16.9787435741893
244540,-0.34160715341568,16.9266612398937
244650,-0.342228621244431,16.6141672341201
244760,-0.342021465301514,16.6662495684157
244870,-0.342642962932587,16.2495834012679
244980,-0.341192841529846,16.1975010669723
245090,-0.340364187955856,16.5100025655289
245200,-0.34243580698967,16.4579127384503
245310,-0.34160715341568,16.4579127384503
245420,-0.341814309358597,16.1454112398937
245520,-0.342021465301514,16.1974935741893
245630,-0.342021465301514,16.1454112398937
245740,-0.342021465301514,15.9891642370069
245850,-0.341399997472763,15.9891642370069
245960,-0.342228621244431,15.8329172341201
246070,-0.341399997472763,0
246180,-0.34160715341568,0
246290,-0.341814309358597,21.093019439649
246400,-0.342021465301514,47.655762959766
246510,-0.34160715341568,47.1349296264327
246620,-0.342021465301514,46.093262959766
246730,-0.341814309358597,46.8745504243994
246830,-0.342228621244431,59.1793503182995
246940,-0.34243580698967,66.5631698483715
247050,-0.341399997472763,67.1881518658649
247160,-0.341192841529846,56.2508054703047
247270,-0.341399997472763,55.9903950475939
247380,-0.34160715341568,56.2508054703047
247490,-0.341814309358597,55.5997606816602
247600,-0.342642962932587,61.4960862037075
247710,-0.34160715341568,61.8309007511612
247820,-0.342228621244431,61.3844813545563
247930,-0.341814309358597,61.2728765054051
248040,-0.342021465301514,60.6032313545563
248150,-0.339949876070023,33.1132248381564
248250,-0.341814309358597,33.0531300143861
248360,-0.341399997472763,33.3536127787307
248470,-0.341814309358597,33.3536127787307
248580,-0.342021465301514,33.1733283074199
248690,-0.340571343898773,33.2935266004537
248800,-0.341399997472763,33.5339058955348
248910,-0.340157032012939,34.3151558955348
249020,-0.342228621244431,34.134871424224
249130,-0.34243580698967,33.5339058955348
249240,-0.341192841529846,33.8343800143861
249350,-0.34160715341568,33.7742851906158
249460,-0.342021465301514,33.4738110717645
249570,-0.342021465301514,33.6541041885686
249670,-0.340571343898773,33.9545869529132
249780,-0.34160715341568,33.7743024816024
249890,-0.34160715341568,33.6541128340619
250000,-0.341814309358597,33.5339231865213
250110,-0.342850118875504,37.5559549560196
250220,-0.340571343898773,37.6675678331415
250330,-0.340364187955856,37.9465879839903
250440,-0.342021465301514,37.7233782856879
250550,-0.342228621244431,37.6675758611123
250660,-0.340985685586929,38.0023904085659
250770,-0.340985685586929,38.3930154085659
250880,-0.340571343898773,38.9510557102635
250980,-0.341814309358597,38.8952532856879
251090,-0.341192841529846,39.2300758611123
251200,-0.342850118875504,39.0068581348391
251310,-0.342850118875504,38.6162331348391
251420,-0.34305727481842,42.1875749278295
251530,-0.341399997472763,42.5521587606817
251640,-0.340571343898773,43.0209147549081
251750,-0.341399997472763,43.0729970892037
251860,-0.342021465301514,42.8646677520213
251970,-0.342021465301514,42.4480015848735
252080,-0.342228621244431,42.0834177520213
252190,-0.342021465301514,42.0834177520213
252300,-0.341399997472763,42.2396647549081
252400,-0.340985685586929,42.6042485877603
252510,-0.341399997472763,42.6042485877603
252620,-0.341192841529846,42.6563309220559
252730,-0.340157032012939,42.9167500863169
252840,-0.34160715341568,43.0209147549081
252950,-0.34077849984169,43.1250869162822
253060,-0.341399997472763,43.3855060805432
253170,-0.341399997472763,43.6459252448042
253280,-0.342021465301514,43.6980075790998
253390,-0.34077849984169,44.1146812390306
253500,-0.341399997472763,44.062598904735
253610,-0.340571343898773,44.5313548989613
253710,-0.341814309358597,44.2188534004047
253820,-0.341814309358597,44.3230180689959
253930,-0.342228621244431,44.3751078960745
254040,-0.341814309358597,44.2188608931877
254150,-0.341399997472763,44.5313623917443
254260,-0.34305727481842,44.1146962245965
254370,-0.340571343898773,44.1146962245965
254480,-0.341399997472763,44.3230255617789
254590,-0.34160715341568,44.3230255617789
254700,-0.34160715341568,44.3751078960745
254810,-0.342642962932587,44.3230255617789
254920,-0.34160715341568,44.2188608931877
255030,-0.341192841529846,44.3751078960745
255130,-0.343471586704254,44.0105240632223
255240,-0.34160715341568,43.8021872332569
255350,-0.340571343898773,44.1667710661091
255460,-0.341399997472763,44.5834372332569
255570,-0.341399997472763,44.5834372332569
255680,-0.34243580698967,44.4792650718828
255790,-0.342021465301514,44.6355195675525
255900,-0.34305727481842,44.3230180689959
256010,-0.34243580698967,44.062598904735
256120,-0.341399997472763,44.2188459076218
256230,-0.34160715341568,44.0105090776564
256340,-0.34160715341568,44.1667560805432
256440,-0.341399997472763,44.1667560805432
256550,-0.341399997472763,44.2188384148388
256660,-0.341192841529846,44.2709207491344
256770,-0.341814309358597,44.2188384148388
256880,-0.34243580698967,44.1146662534647
256990,-0.342021465301514,44.1146662534647
257100,-0.342642962932587,43.8021647549081
257210,-0.340985685586929,44.1146587606817
257320,-0.342021465301514,44.2709132563515
257430,-0.342228621244431,44.1667485877603
257540,-0.34160715341568,44.3750854177256
257650,-0.341814309358597,44.4271677520213
257760,-0.342021465301514,44.3750854177256
257860,-0.342021465301514,44.32300308343
257970,-0.341192841529846,44.6355045819866
258080,-0.341814309358597,44.7917590776564
258190,-0.340364187955856,44.9480135733262
258300,-0.340571343898773,45.1563504032915
258410,-0.341814309358597,44.8959312390306
258520,-0.342228621244431,44.7396842361437
258630,-0.341192841529846,45.0000959076218
258740,-0.342228621244431,44.9480135733262
258850,-0.340571343898773,45.4688519018481
258960,-0.34243580698967,45.1563504032915
259070,-0.342228621244431,44.6876019018481
259170,-0.341814309358597,44.8438563975179
259280,-0.34243580698967,44.6355195675525
259390,-0.34243580698967,44.4792650718828
259500,-0.341814309358597,44.5313474061784
259610,-0.340571343898773,44.8959312390306
259720,-0.342228621244431,44.843848904735
259830,-0.342228621244431,44.6355195675525
259940,-0.340985685586929,44.9480135733262
260050,-0.34077849984169,45.1042680689959
260160,-0.34160715341568,45.1042680689959
260270,-0.342228621244431,45.0001034004047
260380,-0.34160715341568,45.1042680689959
260490,-0.341192841529846,45.2084327375872
260590,-0.340985685586929,45.4688444090652
260700,-0.34160715341568,45.5209267433608
260810,-0.342850118875504,45.364672247691
260920,-0.340571343898773,45.8334282419174
261030,-0.34077849984169,45.9896827375872
261140,-0.342850118875504,45.5730165704394
261250,-0.341399997472763,45.5730165704394
261360,-0.340985685586929,45.7292635733262
261470,-0.342228621244431,45.625098904735
261580,-0.34160715341568,45.8855180689959
261690,-0.34077849984169,46.0938548989613
261800,-0.342021465301514,46.1459372332569
261900,-0.341814309358597,46.1459372332569
262010,-0.342850118875504,45.9376004032915
262120,-0.341192841529846,45.625098904735
262230,-0.342021465301514,45.5730165704394
262340,-0.341399997472763,45.5730165704394
262450,-0.34160715341568,45.625098904735
262560,-0.341192841529846,45.8334282419174
262670,-0.341192841529846,45.6771737462476
262780,-0.340985685586929,45.7813384148388
262890,-0.341814309358597,45.364672247691
263000,-0.34160715341568,45.5209192505778
263110,-0.342850118875504,45.4167545819866
263220,-0.342021465301514,45.2084252448042
263320,-0.341399997472763,45.2605075790998
263430,-0.342021465301514,45.2605075790998
263540,-0.341192841529846,45.4688369162822
263650,-0.341814309358597,45.1563354177256
263760,-0.34160715341568,45.1563354177256
263870,-0.341399997472763,45.2084177520213
263980,-0.342642962932587,45.0000809220559
264090,-0.341814309358597,45.2605000863169
264200,-0.34160715341568,45.0000809220559
264310,-0.342228621244431,44.5313324206125
264420,-0.342228621244431,44.4792500863169
264530,-0.34160715341568,44.6354970892037
264630,-0.340985685586929,44.6354970892037
264740,-0.341399997472763,44.5313324206125
264850,-0.34160715341568,44.2709132563515
264960,-0.342850118875504,44.0104940920905
265070,-0.342642962932587,43.6459102592383
265180,-0.341399997472763,44.0104940920905
265290,-0.341192841529846,44.4271602592383
265400,-0.34243580698967,44.5834072621251
265510,-0.34243580698967,44.3229880978641
265620,-0.34243580698967,43.8542321036378
265730,-0.342642962932587,43.5417306050812
265840,-0.340985685586929,43.8021422765592
265950,-0.34160715341568,43.9063069451504
266050,-0.34160715341568,44.0625539480373
266160,-0.34160715341568,44.1667186166285
266270,-0.340364187955856,44.4271377808894
266380,-0.34077849984169,44.479227607968
266490,-0.34160715341568,44.4271452736724
266600,-0.34077849984169,44.5313174350466
266710,-0.34243580698967,43.958396772229
266820,-0.34160715341568,43.958396772229
266930,-0.34243580698967,43.5417231122982
267040,-0.341814309358597,43.437558443707
267150,-0.34160715341568,43.3854761094114
267260,-0.340157032012939,43.8542246108548
267360,-0.341192841529846,43.7500524494807
267470,-0.341814309358597,43.6458877808894
267580,-0.342021465301514,43.2813039480373
267690,-0.341399997472763,43.3854686166285
267800,-0.340985685586929,43.5937979538109
267910,-0.34243580698967,43.5417081267323
268020,-0.341192841529846,43.6979551296191
268130,-0.34160715341568,43.6458727953235
268240,-0.341814309358597,43.9583742938801
268350,-0.34160715341568,43.6979551296191
268460,-0.343264430761337,43.2292066281757
268570,-0.341399997472763,43.2812889624714
268680,-0.342021465301514,43.1771242938801
268780,-0.340985685586929,43.5937904610279
268890,-0.341192841529846,43.6979551296191
269000,-0.341399997472763,43.6458727953235
269110,-0.342021465301514,44.0104566281757
269220,-0.341399997472763,44.0625389624714
269330,-0.34243580698967,43.593782968245
269440,-0.342850118875504,43.2291991353928
269550,-0.342642962932587,42.9166976368362
269660,-0.341192841529846,43.2291991353928
269770,-0.340985685586929,43.4896108068708
269880,-0.342021465301514,43.7500299711318
269990,-0.342850118875504,43.6458653025406
270090,-0.34305727481842,43.2291991353928
270200,-0.34243580698967,43.0208623054274
270310,-0.341192841529846,43.1250269740186
270420,-0.34077849984169,43.2812814696884
270530,-0.341814309358597,43.1771168010972
270640,-0.341814309358597,43.0208697982104
270750,-0.341814309358597,43.0208697982104
270860,-0.34160715341568,43.2292066281757
270970,-0.342642962932587,43.072952132506
271080,-0.34160715341568,43.333371296767
271190,-0.341399997472763,43.2292066281757
271300,-0.341814309358597,43.2812889624714
271410,-0.342021465301514,43.333371296767
271510,-0.341192841529846,43.4375359653582
271620,-0.342021465301514,43.3854536310626
271730,-0.342228621244431,43.333371296767
271840,-0.34243580698967,43.2291991353928
271950,-0.341814309358597,43.072952132506
272060,-0.343471586704254,42.6562859653582
272170,-0.34160715341568,42.3437844668016
272280,-0.34160715341568,42.0833653025406
272390,-0.341814309358597,42.0833653025406
272500,-0.34160715341568,42.2396123054274
272610,-0.342021465301514,42.031282968245
272720,-0.342850118875504,41.8750284725752
272820,-0.342021465301514,41.510444639723
272930,-0.341814309358597,41.6666991353928
273040,-0.34160715341568,41.8229461382796
273150,-0.34160715341568,41.8750284725752
273260,-0.34243580698967,41.8750284725752
273370,-0.342021465301514,41.9792006339494
273480,-0.342228621244431,41.8750359653582
273590,-0.341814309358597,41.5625344668016
273700,-0.340364187955856,42.031282968245
273810,-0.341192841529846,42.291694639723
273920,-0.34160715341568,42.1354476368362
274030,-0.342021465301514,41.8229461382796
274140,-0.340985685586929,41.9791931411664
274240,-0.341399997472763,42.1875224783489
274350,-0.342850118875504,41.8750209797923
274460,-0.34160715341568,41.7708563112011
274580,-0.341814309358597,41.5625269740186
274680,-0.340985685586929,41.7187739769054
274790,-0.34077849984169,42.2396123054274
274900,-0.341814309358597,41.9271108068708
275010,-0.34160715341568,41.7187739769054
275120,-0.342228621244431,41.8750284725752
275230,-0.340985685586929,41.9791931411664
275340,-0.341399997472763,41.8750284725752
275450,-0.34243580698967,41.8229386454967
275550,-0.341814309358597,41.7708563112011
275660,-0.34160715341568,41.5625194812357
275770,-0.342228621244431,41.5104371469401
275880,-0.34160715341568,41.5625194812357
275990,-0.342021465301514,41.7708563112011
276100,-0.34160715341568,41.6666916426098
276210,-0.342021465301514,41.6666916426098
276320,-0.342850118875504,41.3021078097576
276430,-0.341814309358597,41.250025475462
276540,-0.34160715341568,41.1458608068708
276650,-0.341399997472763,41.0937784725752
276760,-0.34160715341568,40.9375314696884
276870,-0.34160715341568,40.989613803984
276970,-0.341814309358597,40.9375314696884
277080,-0.342228621244431,41.0937859653582
277190,-0.342642962932587,40.9375314696884
277300,-0.342021465301514,40.7812844668016
277410,-0.34160715341568,40.8854491353928
277520,-0.343678742647171,40.2604536310626
277630,-0.341814309358597,40.2604536310626
277740,-0.342021465301514,40.1562889624714
277850,-0.340985685586929,40.2604536310626
277960,-0.342228621244431,40.3646257924367
278070,-0.341399997472763,40.4687904610279
278180,-0.342642962932587,40.208371296767
278280,-0.342021465301514,40.2604536310626
278390,-0.342850118875504,40.1041991353928
278500,-0.342021465301514,40.0000344668016
278610,-0.34077849984169,40.0521242938801
278720,-0.340571343898773,40.2604611238455
278830,-0.341192841529846,40.3646257924367
278940,-0.342228621244431,40.5208802881065
279050,-0.342642962932587,40.5208802881065
279160,-0.342021465301514,40.3646332852197
279270,-0.34160715341568,40.2604686166285
279380,-0.34243580698967,40.2604686166285
279490,-0.34243580698967,40.2604686166285
279600,-0.341192841529846,40.5729701151851
279700,-0.34243580698967,40.6250524494807
279810,-0.34160715341568,40.4688054465938
279920,-0.342228621244431,40.312558443707
280030,-0.34243580698967,40.1042216137416
280140,-0.341399997472763,40.1563039480373
280250,-0.340985685586929,40.0000494523675
280360,-0.340157032012939,40.1562964552543
280470,-0.340985685586929,40.3125434581411
280580,-0.342021465301514,40.0000419595845
280690,-0.34243580698967,40.0000419595845
280800,-0.34243580698967,39.7917051296191
280910,-0.340985685586929,40.1562889624714
281010,-0.341399997472763,40.2604536310626
281120,-0.342021465301514,40.1562889624714
281230,-0.34077849984169,40.0000419595845
281340,-0.341399997472763,39.9479596252889
281450,-0.342021465301514,39.8958772909933
281560,-0.340985685586929,40.1562889624714
281670,-0.34160715341568,40.1042066281757
281780,-0.34160715341568,39.9479596252889
281890,-0.341399997472763,40.2083787895499
282000,-0.342228621244431,39.9479671180719
282110,-0.340571343898773,40.2083862823329
282220,-0.340985685586929,40.4167156195153
282330,-0.341399997472763,40.4687979538109
282430,-0.342021465301514,40.7812994523675
282540,-0.34243580698967,40.5208802881065
282650,-0.342850118875504,40.3125434581411
282760,-0.341814309358597,40.1042141209587
282870,-0.340985685586929,40.1562964552543
282980,-0.340571343898773,40.3646332852197
283090,-0.340985685586929,40.6250449566977
283200,-0.341399997472763,40.6250449566977
283310,-0.342228621244431,40.6771347837763
283420,-0.34243580698967,40.7812994523675
283530,-0.341399997472763,41.0938009509241
283640,-0.341814309358597,40.9375539480373
283740,-0.342021465301514,40.6771422765592
283850,-0.341814309358597,40.7292246108548
283960,-0.342021465301514,40.9375614408202
284070,-0.340571343898773,41.5625644379334
284180,-0.341399997472763,41.8229836021944
284290,-0.342642962932587,41.4583997693422
284400,-0.342228621244431,41.09381593649
284510,-0.34243580698967,40.9375614408202
284620,-0.34243580698967,40.7813069451504
284730,-0.34160715341568,40.833389279446
284840,-0.341192841529846,40.9375539480373
284950,-0.341399997472763,41.2500554465938
285060,-0.341814309358597,41.1979731122982
285160,-0.342228621244431,40.9896437751158
285270,-0.341192841529846,41.1458907780026
285380,-0.341814309358597,41.1979731122982
285490,-0.34243580698967,40.8854716137416
285600,-0.342642962932587,40.7292171180719
285710,-0.342021465301514,40.7812994523675
285820,-0.342021465301514,40.8854716137416
285930,-0.342021465301514,40.833389279446
286040,-0.341399997472763,41.3542201151851
286150,-0.34077849984169,41.5625569451504
286260,-0.341814309358597,41.5104746108548
286370,-0.342228621244431,41.4063099422636
286470,-0.342642962932587,41.1458907780026
286580,-0.341192841529846,41.3542201151851
286690,-0.341814309358597,41.614639279446
286800,-0.341814309358597,41.6667216137416
286910,-0.34160715341568,41.7188039480373
287020,-0.341814309358597,41.6667216137416
287130,-0.34160715341568,41.6667216137416
287240,-0.342021465301514,41.7708937751158
287350,-0.341814309358597,41.8229761094114
287460,-0.340157032012939,42.3438069451504
287570,-0.341814309358597,42.3438069451504
287680,-0.341814309358597,41.9792231122982
287790,-0.342228621244431,41.7188114408202
287890,-0.34243580698967,41.5104746108548
288010,-0.341399997472763,41.6667216137416
288110,-0.340985685586929,41.6667216137416
288220,-0.34077849984169,41.8229761094114
288330,-0.341192841529846,42.2396422765592
288440,-0.34160715341568,42.2396422765592
288550,-0.341814309358597,42.2396422765592
288660,-0.341399997472763,42.135477607968
288770,-0.341192841529846,42.0313054465938
288880,-0.341399997472763,42.1354701151851
288990,-0.34077849984169,42.3438069451504
289100,-0.34160715341568,42.5000539480373
289200,-0.34243580698967,42.1354701151851
289310,-0.341192841529846,42.1875524494807
289420,-0.342021465301514,42.2917246108548
289530,-0.34160715341568,42.3438069451504
289640,-0.341814309358597,42.2917246108548
289750,-0.341192841529846,42.5521362823329
289860,-0.340157032012939,42.9167201151851
289970,-0.341814309358597,42.9688024494807
290080,-0.341192841529846,43.0729671180719
290190,-0.34243580698967,42.9687949566977
290300,-0.341192841529846,43.3854611238455
290410,-0.341192841529846,43.5417081267323
290520,-0.341814309358597,43.4896257924367
290620,-0.342850118875504,43.1250419595845
290730,-0.34243580698967,42.9167051296191
290840,-0.340364187955856,43.2292066281757
290950,-0.339535564184189,43.8021197982104
291060,-0.342021465301514,43.854202132506
291170,-0.341399997472763,44.1667036310626
291280,-0.341192841529846,44.375032968245
291390,-0.340985685586929,44.5312799711318
291500,-0.342021465301514,44.9479461382796
291610,-0.342642962932587,44.7396093083142
291730,-0.34160715341568,44.8437739769054
291830,-0.34243580698967,44.4791901440532
291930,-0.342021465301514,44.5312724783489
292040,-0.340364187955856,44.7916916426098
292150,-0.341192841529846,45.156275475462
292260,-0.341814309358597,45.2083578097576
292370,-0.34243580698967,45.3125224783489
292480,-0.342021465301514,45.3125224783489
292590,-0.342021465301514,45.0000209797923
292700,-0.341814309358597,44.6875194812357
292810,-0.34077849984169,44.7916916426098
292920,-0.341814309358597,44.8958563112011
293030,-0.34160715341568,45.156275475462
293140,-0.341399997472763,45.3125224783489
293250,-0.34160715341568,45.3125224783489
293350,-0.34160715341568,45.5208593083142
293460,-0.342021465301514,45.6250314696884
293570,-0.342021465301514,45.416702132506
293680,-0.34160715341568,45.6250389624714
293790,-0.341192841529846,45.7292036310626
293900,-0.342021465301514,45.7812859653582
294010,-0.341814309358597,45.9375404610279
294120,-0.342021465301514,45.7812934581411
294230,-0.341814309358597,45.5729641209587
294340,-0.342850118875504,44.8958787895499
294450,-0.341814309358597,44.6875494523675
294560,-0.341399997472763,44.8437964552543
294660,-0.341814309358597,45.0000509509241
294770,-0.34243580698967,45.0000509509241
294880,-0.340364187955856,45.1563054465938
294990,-0.34243580698967,44.8958862823329
295100,-0.34243580698967,44.7917141209587
295210,-0.342642962932587,44.3229581267323
295320,-0.341192841529846,44.3750404610279
295430,-0.341192841529846,44.5833697982104
295540,-0.341399997472763,44.4792051296191
295650,-0.34243580698967,44.2708682996538
295760,-0.342642962932587,44.0104491353928
295870,-0.342228621244431,43.8021197982104
295980,-0.341399997472763,44.0104491353928
296080,-0.34160715341568,43.7500299711318
296190,-0.341192841529846,43.6979476368362
296300,-0.34243580698967,43.4375284725752
296410,-0.34160715341568,43.5416931411664
296520,-0.341192841529846,43.854194639723
296630,-0.34160715341568,44.1666961382796
296740,-0.34243580698967,44.0104416426098
296850,-0.342021465301514,43.7500299711318
296960,-0.340985685586929,43.6458578097576
297070,-0.341814309358597,43.4375284725752
297180,-0.341192841529846,43.4896108068708
297290,-0.341814309358597,43.593775475462
297390,-0.341814309358597,43.7500299711318
297500,-0.341192841529846,43.8021123054274
297610,-0.341192841529846,43.9583593083142
297720,-0.341399997472763,44.1146063112011
297830,-0.341814309358597,44.1146063112011
297940,-0.34305727481842,43.8541871469401
298050,-0.340571343898773,43.8541871469401
298160,-0.341814309358597,43.7500224783489
298270,-0.340985685586929,44.1666886454967
298380,-0.341399997472763,44.3750179826791
298490,-0.341399997472763,44.6354371469401
298600,-0.34160715341568,44.8437739769054
298710,-0.342021465301514,44.7396093083142
298810,-0.341399997472763,44.6875269740186
298920,-0.34077849984169,44.8437814696884
299030,-0.342228621244431,44.7396168010972
299140,-0.340985685586929,45.0521108068708
299250,-0.341192841529846,45.0521108068708
299360,-0.341814309358597,45.0521108068708
299470,-0.34160715341568,45.2604476368362
299580,-0.342228621244431,45.3646197982104
299690,-0.342642962932587,45.2083653025406
299800,-0.34243580698967,45.1041931411664
299910,-0.34243580698967,45.0000209797923
300020,-0.34160715341568,44.9479386454967
300120,-0.341192841529846,44.8437664841225
300230,-0.341814309358597,44.8437664841225
300340,-0.340985685586929,45.1562604898961
300450,-0.34160715341568,45.4166796541571
300560,-0.340985685586929,45.4687619884527
300670,-0.34077849984169,45.7291811527137
300780,-0.341814309358597,45.7291811527137
300890,-0.342228621244431,45.5729341498269
301000,-0.34243580698967,45.4166796541571
301110,-0.341399997472763,45.4687619884527
301220,-0.34160715341568,45.5729266570439
301330,-0.34160715341568,45.6250089913395
301440,-0.342850118875504,44.9479236599308
301540,-0.342021465301514,44.8958413256351
301650,-0.34160715341568,44.9479236599308
301760,-0.343264430761337,44.6875044956698
301870,-0.342228621244431,44.7395943227483
301980,-0.341192841529846,44.7916766570439
302090,-0.342021465301514,44.5312649855659
302200,-0.34243580698967,44.1145913256351
302310,-0.341814309358597,43.9583443227483
302420,-0.341814309358597,43.9062619884527
302530,-0.342021465301514,43.8541796541571
302640,-0.341814309358597,43.7500149855659
302750,-0.341814309358597,43.5937679826791
302850,-0.34305727481842,43.1771018155313
302960,-0.341814309358597,42.9166826512703
303070,-0.341399997472763,42.9687649855659
303180,-0.34160715341568,43.1771018155313
303290,-0.340364187955856,43.3854386454967
303400,-0.342228621244431,43.3333563112011
303510,-0.342850118875504,43.0208548126445
303620,-0.342228621244431,42.9166901440532
303730,-0.340571343898773,43.072944639723
303840,-0.341399997472763,42.7604431411664
303950,-0.342021465301514,42.7083608068708
304060,-0.34243580698967,42.3958593083142
304170,-0.341399997472763,42.6562784725752
304270,-0.34160715341568,42.552113803984
304380,-0.341399997472763,42.5000314696884
304490,-0.342228621244431,42.3958668010972
304600,-0.342228621244431,42.552121296767
304710,-0.340985685586929,42.9167051296191
304820,-0.342021465301514,42.5000389624714
304930,-0.342228621244431,41.8229611238455
305040,-0.34243580698967,41.7187889624714
305150,-0.34243580698967,41.4583697982104
305260,-0.343264430761337,40.9375389624714
305370,-0.342642962932587,40.5208727953235
305480,-0.34160715341568,40.6250374639148
305580,-0.342228621244431,40.7292096252889
305690,-0.34160715341568,40.7292096252889
305800,-0.341814309358597,40.8854641209587
305910,-0.342228621244431,40.8333817866631
306020,-0.341814309358597,40.4687979538109
306130,-0.342021465301514,40.2604686166285
306240,-0.341399997472763,40.3646332852197
306350,-0.342642962932587,40.3125509509241
306460,-0.341399997472763,40.4687979538109
306570,-0.34243580698967,40.3646257924367
306680,-0.341399997472763,40.4687904610279
306790,-0.34160715341568,40.2604536310626
