time,raw,transformed
8220,-0.329591870307922,0
8330,-0.33042049407959,0
8440,-0.330213338136673,0
8550,-0.330834835767746,0
8660,-0.33124914765358,100
8760,-0.330834835767746,100
8870,-0.329591870307922,51.7858106216096
8980,-0.33124914765358,45.3125842939093
9090,-0.332077771425247,56.4813371749943
9200,-0.333113580942154,62.3529859777102
9310,-0.332284957170486,58.8235339371423
9420,-0.331663459539413,57.3529577695217
9530,-0.331663459539413,56.1086240892281
9640,-0.332492113113403,53.3613480934686
9750,-0.332284957170486,51.3725257893359
9860,-0.33187061548233,50.3676408364292
9970,-0.334149390459061,58.0214830414752
10070,-0.334356546401978,56.5217904987478
10180,-0.333113580942154,54.9199642881132
10290,-0.335185199975967,58.5186566567742
10400,-0.333735078573227,56.9666209203512
10510,-0.332906424999237,56.2290898822035
10620,-0.333942234516144,54.7505329927312
10730,-0.334356546401978,53.0865537800843
10840,-0.334149390459061,51.7038378951515
10950,-0.334356546401978,50.2850376641546
11060,-0.335392355918884,50.1323675601282
11170,-0.335599511861801,50.0000531507401
11280,-0.333527892827988,49.4649846465228
11390,-0.333942234516144,48.7356903442588
11490,-0.335806667804718,48.8172269888995
11600,-0.333320736885071,48.541694639723
11710,-0.334978014230728,47.4747813814824
11820,-0.334563702344894,46.666702396957
11930,-0.334770858287811,45.809563085978
12040,-0.334770858287811,45.0000426256093
12150,-0.334978014230728,44.1441916659391
12260,-0.335185199975967,43.2456552585388
12370,-0.335599511861801,42.2222607492159
12480,-0.334563702344894,41.6667066281757
12590,-0.334770858287811,41.0569534546275
12700,-0.336013823747635,41.9354899302459
12800,-0.334563702344894,41.4853783056182
12910,-0.335599511861801,40.6891536428398
13020,-0.336220979690552,41.5971934998529
13130,-0.334978014230728,41.1005178235932
13240,-0.335806667804718,40.3590150530512
13350,-0.335806667804718,39.6484082312818
13460,-0.335392355918884,39.0943544962806
13570,-0.336220979690552,38.3124674063554
13680,-0.335185199975967,37.8676095948636
13790,-0.336428135633469,38.9859461554892
13900,-0.335599511861801,38.4790603932003
14010,-0.334978014230728,38.1593034834064
14120,-0.335392355918884,37.740975255394
14220,-0.335599511861801,37.2834757107294
14330,-0.336428135633469,36.6293796456292
14440,-0.336013823747635,36.1023300030681
14550,-0.335806667804718,35.6445066227726
14660,-0.335806667804718,35.2019440218206
14770,-0.334563702344894,35.0719562123053
14880,-0.337878257036209,45.6854512410675
14990,-0.335185199975967,45.4761547962292
15100,-0.336428135633469,45.0390280799871
15210,-0.336220979690552,44.6538122633718
15320,-0.335599511861801,44.3939039734688
15430,-0.335599511861801,44.1417541399799
15530,-0.336635321378708,43.7131949652667
15640,-0.336220979690552,43.3695254730167
15750,-0.335392355918884,43.1785296830165
15860,-0.335806667804718,42.9224927872904
15970,-0.336635321378708,42.5346766410711
16080,-0.335806667804718,42.294474359502
16190,-0.337049633264542,41.8580601137383
16300,-0.336635321378708,41.4999490490148
16410,-0.337049633264542,41.0854736690675
16520,-0.337049633264542,40.681763883404
16630,-0.337256789207459,40.2563549250236
16740,-0.336635321378708,39.9366508153331
16850,-0.337049633264542,39.5624404323039
16950,-0.336842477321625,39.2283334543278
17060,-0.336428135633469,38.9633543263087
17170,-0.336842477321625,38.644516023778
17280,-0.337256789207459,38.2737463702778
17390,-0.336635321378708,37.9999344160327
17500,-0.336842477321625,37.7034209369656
17610,-0.337049633264542,37.3849887442762
17720,-0.336842477321625,37.1022022269123
17830,-0.336635321378708,36.8538598452556
17940,-0.337049633264542,36.5554816266751
18050,-0.337671101093292,36.1812450708136
18160,-0.336428135633469,35.9781885478344
18260,-0.337463945150375,35.6450887794328
18370,-0.336635321378708,35.4254573058167
18480,-0.336013823747635,35.2893993872634
18590,-0.338499754667282,34.8436741354817
18700,-0.338085442781448,34.4586845598862
18810,-0.336842477321625,34.2346140563798
18920,-0.338292598724365,33.8383020988352
19030,-0.337256789207459,33.5749177291449
19140,-0.337256789207459,33.3167488915269
19250,-0.337256789207459,33.0636421879801
19360,-0.338085442781448,32.7183610531716
19470,-0.337671101093292,32.4277994569224
19580,-0.336635321378708,32.2618178455184
19680,-0.337049633264542,32.0517989995514
19790,-0.337878257036209,31.7522494761907
19900,-0.337049633264542,31.5508380937539
20010,-0.338085442781448,31.2384421965883
20120,-0.338292598724365,30.9089993607969
20230,-0.337671101093292,30.6530620246026
20340,-0.337878257036209,30.3793739708118
20450,-0.338706910610199,30.0220327867603
20560,-0.338292598724365,29.7148196066964
20670,-0.338085442781448,29.4346880040534
20780,-0.337671101093292,29.202492030253
20890,-0.337463945150375,28.9956323555202
20990,-0.339121222496033,28.6227872515452
21100,-0.337671101093292,28.4032676531565
21210,-0.337256789207459,28.229072632128
21320,-0.337256789207459,28.0577568676455
21430,-0.338914066553116,27.7253151320891
21540,-0.338085442781448,27.479578304208
21650,-0.337878257036209,27.2579688017548
21760,-0.338499754667282,26.9799032530705
21870,-0.337671101093292,26.7856179498178
21980,-0.338085442781448,26.5550200549592
22090,-0.337671101093292,26.3670898595551
22200,-0.337049633264542,25.6639634546566
22310,-0.337049633264542,25.0389606448596
22410,-0.337049633264542,24.3944269362873
22520,-0.338292598724365,23.6913005313888
22630,-0.339121222496033,22.9491123289396
22740,-0.337671101093292,22.3045814301642
22850,-0.338085442781448,21.5037977215918
22960,-0.338085442781448,20.8592640130195
23070,-0.337878257036209,20.312387608121
23180,-0.338706910610199,19.7850421019979
23290,-0.338085442781448,19.2381656970994
23400,-0.337671101093292,18.6717583934255
23510,-0.337671101093292,18.1053510897517
23620,-0.338292598724365,17.5584746848532
23720,-0.337878257036209,17.031131988527
23830,-0.337256789207459,16.5233173811793
23940,-0.339949876070023,15.9764409762808
24050,-0.338085442781448,15.6248763689331
24160,-0.337671101093292,15.1951881664838
24270,-0.338706910610199,14.8631572677085
24380,-0.338914066553116,14.3748763689331
24490,-0.338706910610199,13.8279999640346
24600,-0.338085442781448,13.4373735591361
24710,-0.337671101093292,13.1248735591361
24820,-0.337671101093292,12.7928426603607
24930,-0.339121222496033,12.3436235591361
25040,-0.337256789207459,12.1678426603607
25140,-0.338914066553116,11.8553426603607
25250,-0.338499754667282,11.3865898505638
25360,-0.338499754667282,10.9569016481145
25470,-0.337671101093292,10.7811207493391
25580,-0.338292598724365,10.3123679395422
25690,-0.337878257036209,10.0389297370929
25800,-0.337256789207459,9.78502243341905
25910,-0.337671101093292,9.51158423096981
26020,-0.338499754667282,9.16001962362208
26130,-0.339121222496033,8.76939321872359
26240,-0.337049633264542,8.59361231994821
26350,-0.339949876070023,8.18345501627434
26450,-0.339121222496033,7.7537668138251
26560,-0.338499754667282,7.40220220647737
26670,-0.338499754667282,7.16782580157888
26780,-0.338085442781448,6.83579209300653
26890,-0.337878257036209,6.62094939668039
27000,-0.338499754667282,6.40610389055728
27110,-0.338914066553116,6.03500838443417
27220,-0.338292598724365,5.80063197953569
27330,-0.338085442781448,5.58578647341258
27440,-0.338499754667282,5.29281737218796
27550,-0.338914066553116,5.03891006851409
27660,-0.33932837843895,4.64828647341258
27770,-0.338292598724365,4.47250276484022
27870,-0.338914066553116,4.16000276484022
27980,-0.338085442781448,3.86703085381863
28090,-0.337671101093292,3.65218815749249
28200,-0.339121222496033,3.32015725871711
28310,-0.339949876070023,2.98812355014476
28420,-0.338706910610199,2.7342162464709
28530,-0.337878257036209,2.53890444892014
28640,-0.338914066553116,2.24593534769552
28750,-0.338292598724365,1.89437074034779
28860,-0.339121222496033,1.77718253789854
28970,-0.339535564184189,1.36702523422468
29080,-0.339121222496033,1.11311793055081
29180,-0.339121222496033,0.839679728101566
29290,-0.338499754667282,0.566241525652323
29400,-0.338085442781448,0.331865120753835
29510,-0.338085442781448,0.195146019529213
29620,-0.338499754667282,0
29730,-0.337463945150375,0
29840,-0.338914066553116,0
29950,-0.338292598724365,0
30060,-0.33932837843895,0
30170,-0.338706910610199,0
30280,-0.338085442781448,0
30390,-0.338499754667282,0
30500,-0.338292598724365,0
30600,-0.338292598724365,0
30710,-0.339121222496033,0
30820,-0.338914066553116,0
30930,-0.338499754667282,0
31040,-0.339121222496033,0
31150,-0.338499754667282,0
31260,-0.338499754667282,0
31370,-0.338499754667282,0
31480,-0.338499754667282,0
31590,-0.338706910610199,0
31700,-0.338706910610199,0
31810,-0.339535564184189,0
31910,-0.339121222496033,0
32020,-0.338499754667282,0
32130,-0.338914066553116,0
32240,-0.338499754667282,0
32350,-0.338706910610199,0
32460,-0.33932837843895,0
32570,-0.337878257036209,0
32680,-0.338706910610199,0
32790,-0.339535564184189,0
32900,-0.339535564184189,0
33010,-0.337671101093292,0
33120,-0.338499754667282,0
33230,-0.339121222496033,0
33330,-0.33932837843895,0
33440,-0.338706910610199,0
33550,-0.338706910610199,0
33660,-0.338706910610199,0
33770,-0.339121222496033,0
33880,-0.339121222496033,0
33990,-0.338914066553116,0
34100,-0.339742720127106,0
34210,-0.33932837843895,0
34320,-0.339535564184189,0
34430,-0.338706910610199,0
34540,-0.338292598724365,0
34640,-0.340157032012939,0
34750,-0.338706910610199,0
34860,-0.33932837843895,0
34970,-0.338706910610199,0
35080,-0.338085442781448,0
35190,-0.340157032012939,0
35300,-0.339742720127106,0
35410,-0.338085442781448,0
35520,-0.338706910610199,0
35630,-0.337671101093292,0
35740,-0.338499754667282,0
35850,-0.337671101093292,0
35960,-0.339535564184189,0
36060,-0.340157032012939,0
36170,-0.33932837843895,0
36280,-0.338499754667282,0
36390,-0.339121222496033,0
36500,-0.33932837843895,0
36610,-0.338914066553116,0
36720,-0.339949876070023,0
36830,-0.33932837843895,0
36940,-0.338914066553116,0
37050,-0.338499754667282,0
37160,-0.338085442781448,0
37270,-0.340157032012939,0
37370,-0.338292598724365,0
37480,-0.33932837843895,0
37590,-0.339535564184189,0
37700,-0.339742720127106,0
37810,-0.338499754667282,0
37920,-0.339949876070023,0
38030,-0.339121222496033,0
38140,-0.339535564184189,0
38250,-0.338292598724365,0
38360,-0.338914066553116,0
38470,-0.338914066553116,0
38580,-0.339121222496033,0
38690,-0.339121222496033,0
38790,-0.340364187955856,0
38900,-0.33932837843895,0
39010,-0.338914066553116,0
39120,-0.338914066553116,0
39230,-0.33932837843895,0
39340,-0.339949876070023,0
39450,-0.338499754667282,0
39560,-0.339742720127106,0
39670,-0.338706910610199,0
39780,-0.339535564184189,0
39890,-0.339121222496033,0
40000,-0.33932837843895,0
40100,-0.339742720127106,0
40210,-0.338706910610199,0
40320,-0.339535564184189,0
40430,-0.338085442781448,0
40540,-0.340157032012939,0
40650,-0.340157032012939,0
40760,-0.339535564184189,0
40870,-0.339535564184189,0
40980,-0.339742720127106,0
41090,-0.339535564184189,0
41200,-0.339949876070023,0
41310,-0.338914066553116,0
41420,-0.338499754667282,0
41520,-0.338499754667282,0
41630,-0.338914066553116,0
41740,-0.33932837843895,0
41850,-0.339121222496033,0
41960,-0.338706910610199,0
42070,-0.338085442781448,0
42180,-0.339949876070023,0
42290,-0.339535564184189,0
42400,-0.339121222496033,0
42510,-0.339949876070023,0
42620,-0.338914066553116,0
42730,-0.338706910610199,0
42830,-0.339121222496033,0
42940,-0.340157032012939,0
43050,-0.338085442781448,0
43160,-0.340985685586929,0
43270,-0.339121222496033,0
43380,-0.339535564184189,0
43490,-0.340364187955856,0
43600,-0.338914066553116,0
43710,-0.339742720127106,0
43820,-0.341192841529846,0
43930,-0.339535564184189,0
44040,-0.34077849984169,0
44150,-0.339121222496033,0
44250,-0.336013823747635,0
44360,-0.342021465301514,0
44470,-0.338706910610199,0
44580,-0.34077849984169,0
44690,-0.34077849984169,0
44800,-0.338914066553116,0
44910,-0.340364187955856,0
45020,-0.338085442781448,0
45130,-0.340985685586929,0
45240,-0.340571343898773,0
45350,-0.338292598724365,0
45460,-0.34077849984169,0
45560,-0.338499754667282,0
45670,-0.339121222496033,0
45780,-0.340157032012939,0
45890,-0.339949876070023,0
46000,-0.338914066553116,0
46110,-0.338706910610199,0
46220,-0.340571343898773,0
46330,-0.340364187955856,0
46440,-0.339121222496033,0
46550,-0.340157032012939,0
46660,-0.33932837843895,0
46770,-0.339742720127106,0
46880,-0.339949876070023,0
46980,-0.339742720127106,0
47090,-0.33932837843895,0
47200,-0.339535564184189,0
47310,-0.339742720127106,0
47420,-0.340157032012939,0
47530,-0.339121222496033,0
47640,-0.339535564184189,0
47750,-0.337878257036209,0
47860,-0.339121222496033,0
47970,-0.339742720127106,0
48080,-0.339535564184189,0
48190,-0.340157032012939,0
48290,-0.339121222496033,0
48400,-0.339121222496033,0
48510,-0.338706910610199,0
48620,-0.339742720127106,0
48730,-0.339742720127106,0
48840,-0.33932837843895,0
48950,-0.339121222496033,0
49060,-0.33932837843895,0
49170,-0.339535564184189,0
49280,-0.33932837843895,0
49390,-0.339742720127106,0
49500,-0.33932837843895,0
49610,-0.339121222496033,0
49710,-0.338085442781448,0
49820,-0.339535564184189,0
49930,-0.339535564184189,0
50040,-0.33932837843895,0
50150,-0.339949876070023,0
50260,-0.339742720127106,0
50370,-0.338292598724365,0
50480,-0.339121222496033,0
50590,-0.338706910610199,0
50700,-0.339535564184189,0
50810,-0.33932837843895,0
50920,-0.339535564184189,0
51020,-0.339535564184189,0
51130,-0.340571343898773,0
51240,-0.339742720127106,0
51350,-0.339121222496033,0
51460,-0.339535564184189,0
51570,-0.340157032012939,0
51680,-0.33932837843895,0
51790,-0.340157032012939,0
51900,-0.340364187955856,0
52010,-0.338499754667282,0
52120,-0.339121222496033,0
52230,-0.338914066553116,0
52340,-0.339535564184189,0
52440,-0.340364187955856,0
52550,-0.339535564184189,0
52660,-0.340157032012939,0
52770,-0.339949876070023,0
52880,-0.339742720127106,0
52990,-0.33932837843895,0
53100,-0.339535564184189,0
53210,-0.340157032012939,0
53320,-0.339949876070023,0
53430,-0.338499754667282,0
53540,-0.340157032012939,0
53650,-0.34077849984169,0
53760,-0.340157032012939,0
53860,-0.340364187955856,0
53970,-0.339742720127106,0
54080,-0.339742720127106,0
54190,-0.338914066553116,0
54300,-0.33932837843895,0
54410,-0.338706910610199,0
54520,-0.340571343898773,0
54630,-0.340571343898773,0
54740,-0.339949876070023,0
54850,-0.340571343898773,0
54960,-0.339535564184189,0
55070,-0.33932837843895,0
55170,-0.340364187955856,0
55280,-0.338914066553116,0
55390,-0.340157032012939,0
55500,-0.339742720127106,0
55610,-0.338914066553116,0
55720,-0.339742720127106,0
55830,-0.340571343898773,0
55940,-0.33932837843895,0
56050,-0.340157032012939,0
56160,-0.340157032012939,0
56270,-0.340364187955856,0
56380,-0.339949876070023,0
56490,-0.340985685586929,0
56590,-0.33932837843895,0
56700,-0.340157032012939,0
56810,-0.339949876070023,0
56920,-0.339949876070023,0
57030,-0.33932837843895,0
57140,-0.338914066553116,0
57250,-0.340364187955856,0
57360,-0.339742720127106,0
57470,-0.340364187955856,0
57580,-0.339949876070023,0
57690,-0.339742720127106,0
57800,-0.339949876070023,0
57900,-0.339742720127106,0
58010,-0.339949876070023,0
58120,-0.339535564184189,0
58230,-0.338292598724365,0
58340,-0.339535564184189,0
58450,-0.340571343898773,0
58560,-0.33932837843895,0
58670,-0.339535564184189,0
58780,-0.339949876070023,0
58890,-0.339535564184189,0
59000,-0.339742720127106,0
59110,-0.340571343898773,0
59220,-0.338706910610199,0
59320,-0.339535564184189,0
59430,-0.339742720127106,0
59540,-0.340985685586929,0
59650,-0.339742720127106,0
59760,-0.340157032012939,0
59870,-0.339535564184189,0
59980,-0.33932837843895,0
60090,-0.339535564184189,0
60200,-0.339949876070023,0
60310,-0.338292598724365,0
60420,-0.340364187955856,0
60530,-0.339742720127106,0
60630,-0.33932837843895,0
60740,-0.339742720127106,0
60850,-0.339535564184189,0
60960,-0.340985685586929,0
61070,-0.338914066553116,0
61180,-0.339121222496033,0
61290,-0.339535564184189,0
61400,-0.339742720127106,0
61510,-0.339949876070023,0
61620,-0.339949876070023,0
61730,-0.340571343898773,0
61840,-0.339949876070023,0
61950,-0.339742720127106,0
62050,-0.340364187955856,0
62160,-0.340364187955856,0
62270,-0.339949876070023,0
62380,-0.340157032012939,0
62490,-0.339121222496033,0
62600,-0.339742720127106,0
62710,-0.340364187955856,0
62820,-0.340364187955856,0
62930,-0.340157032012939,0
63040,-0.340157032012939,0
63150,-0.339121222496033,0
63260,-0.34077849984169,0
63360,-0.339949876070023,0
63470,-0.340571343898773,0
63580,-0.338914066553116,0
63690,-0.340157032012939,0
63800,-0.340157032012939,0
63910,-0.340157032012939,0
64020,-0.338914066553116,0
64130,-0.33932837843895,0
64240,-0.340364187955856,0
64350,-0.33932837843895,0
64460,-0.340985685586929,0
64570,-0.340364187955856,0
64680,-0.339949876070023,0
64780,-0.339535564184189,0
64890,-0.339742720127106,0
65000,-0.338914066553116,0
65110,-0.340364187955856,0
65220,-0.340157032012939,0
65330,-0.340985685586929,0
65440,-0.340364187955856,0
65550,-0.340157032012939,0
65660,-0.340157032012939,0
65770,-0.340157032012939,0
65880,-0.339742720127106,0
65990,-0.339949876070023,0
66090,-0.340571343898773,0
66200,-0.340364187955856,0
66310,-0.340157032012939,0
66420,-0.339121222496033,0
66530,-0.339742720127106,0
66640,-0.340157032012939,0
66750,-0.340571343898773,0
66860,-0.340157032012939,0
66970,-0.339949876070023,0
67080,-0.340571343898773,0
67190,-0.33932837843895,0
67300,-0.340157032012939,0
67410,-0.339742720127106,0
67510,-0.34077849984169,0
67620,-0.339535564184189,0
67730,-0.33932837843895,0
67840,-0.339535564184189,0
67950,-0.339535564184189,0
68060,-0.34160715341568,0
68170,-0.340364187955856,0
68280,-0.339121222496033,0
68390,-0.340364187955856,0
68500,-0.339949876070023,0
68610,-0.339121222496033,0
68720,-0.340364187955856,0
68820,-0.339742720127106,0
68930,-0.339949876070023,0
69040,-0.340364187955856,0
69150,-0.339949876070023,0
69260,-0.340985685586929,0
69370,-0.341192841529846,0
69480,-0.339742720127106,0
69590,-0.339121222496033,0
69700,-0.341192841529846,0
69810,-0.339742720127106,0
69920,-0.34077849984169,0
70030,-0.340985685586929,0
70140,-0.340571343898773,0
70240,-0.340364187955856,0
70350,-0.339949876070023,0
70460,-0.34077849984169,0
70570,-0.338499754667282,0
70680,-0.340157032012939,0
70790,-0.34077849984169,0
70900,-0.340985685586929,0
71010,-0.34077849984169,0
71120,-0.339535564184189,0
71230,-0.339949876070023,0
71340,-0.339949876070023,0
71450,-0.340157032012939,0
71550,-0.340364187955856,0
71660,-0.339535564184189,0
71770,-0.340364187955856,0
71880,-0.339742720127106,0
71990,-0.340157032012939,0
72100,-0.34077849984169,0
72210,-0.33932837843895,0
72320,-0.339742720127106,0
72430,-0.338914066553116,0
72540,-0.340364187955856,0
72650,-0.338706910610199,0
72760,-0.339949876070023,0
72870,-0.34077849984169,0
72970,-0.340571343898773,0
73080,-0.33932837843895,0
73190,-0.339121222496033,0
73300,-0.339742720127106,0
73410,-0.339535564184189,0
73520,-0.33932837843895,0
73630,-0.339121222496033,0
73740,-0.34077849984169,0
73850,-0.339742720127106,0
73960,-0.341399997472763,0
74070,-0.340157032012939,0
74180,-0.341399997472763,0
74280,-0.340364187955856,0
74390,-0.339742720127106,0
74500,-0.33932837843895,0
74610,-0.340364187955856,0
74720,-0.340157032012939,0
74830,-0.33932837843895,0
74940,-0.340571343898773,0
75050,-0.34077849984169,0
75160,-0.339949876070023,0
75270,-0.339742720127106,0
75380,-0.340571343898773,0
75490,-0.339535564184189,0
75600,-0.340364187955856,0
75700,-0.340157032012939,0
75810,-0.340985685586929,0
75920,-0.340157032012939,0
76030,-0.339742720127106,0
76140,-0.339949876070023,0
76250,-0.340364187955856,0
76360,-0.340364187955856,0
76470,-0.339121222496033,0
76580,-0.339742720127106,0
76690,-0.339535564184189,0
76800,-0.339949876070023,0
76910,-0.339742720127106,0
77010,-0.340985685586929,0
77120,-0.340364187955856,0
77230,-0.340985685586929,0
77340,-0.339121222496033,0
77450,-0.339742720127106,0
77560,-0.339535564184189,0
77670,-0.340364187955856,0
77780,-0.339742720127106,0
77890,-0.34160715341568,0
78000,-0.339121222496033,0
78110,-0.340571343898773,0
78220,-0.339742720127106,0
78330,-0.339949876070023,0
78430,-0.340571343898773,0
78540,-0.340571343898773,0
78650,-0.340571343898773,0
78760,-0.340364187955856,0
78870,-0.341192841529846,0
78980,-0.340157032012939,0
79090,-0.339121222496033,0
79200,-0.33932837843895,0
79310,-0.340157032012939,0
79420,-0.340157032012939,0
79530,-0.339949876070023,0
79640,-0.340157032012939,0
79740,-0.339742720127106,0
79850,-0.33932837843895,0
79960,-0.339535564184189,0
80070,-0.339121222496033,0
80180,-0.340364187955856,0
80290,-0.340571343898773,0
80400,-0.339949876070023,0
80510,-0.339742720127106,0
80620,-0.339121222496033,0
80730,-0.340985685586929,0
80840,-0.339949876070023,0
80950,-0.340571343898773,0
81060,-0.340985685586929,0
81160,-0.339949876070023,0
81270,-0.339742720127106,0
81380,-0.339535564184189,0
81490,-0.340364187955856,0
81600,-0.338292598724365,0
81710,-0.339949876070023,0
81820,-0.340985685586929,0
81930,-0.339949876070023,0
82040,-0.340157032012939,0
82150,-0.339535564184189,0
82260,-0.34160715341568,0
82370,-0.339742720127106,0
82470,-0.341192841529846,0
82580,-0.340364187955856,0
82690,-0.339949876070023,0
82800,-0.339949876070023,0
82910,-0.340985685586929,0
83020,-0.340364187955856,0
83130,-0.340364187955856,0
83240,-0.340985685586929,0
83350,-0.339121222496033,0
83460,-0.339742720127106,0
83570,-0.34077849984169,0
83680,-0.34077849984169,0
83790,-0.340364187955856,0
83890,-0.340364187955856,0
84000,-0.339535564184189,0
84110,-0.340364187955856,0
84220,-0.339742720127106,0
84330,-0.340364187955856,0
84440,-0.33932837843895,0
84550,-0.34077849984169,0
84660,-0.339535564184189,0
84770,-0.34077849984169,0
84880,-0.339535564184189,0
84990,-0.340157032012939,0
85100,-0.340157032012939,0
85200,-0.33932837843895,0
85310,-0.339949876070023,0
85420,-0.34077849984169,0
85530,-0.340571343898773,0
85640,-0.340985685586929,0
85750,-0.34160715341568,0
85860,-0.339535564184189,0
85970,-0.340571343898773,0
86080,-0.339742720127106,0
86190,-0.339742720127106,0
86300,-0.340571343898773,0
86410,-0.340157032012939,0
86520,-0.339949876070023,0
86620,-0.340985685586929,0
86730,-0.34077849984169,0
86840,-0.340364187955856,0
86950,-0.340571343898773,0
87060,-0.34077849984169,0
87170,-0.340364187955856,0
87280,-0.340985685586929,0
87390,-0.340985685586929,0
87500,-0.340571343898773,0
87610,-0.341192841529846,0
87720,-0.33932837843895,0
87830,-0.339949876070023,0
87930,-0.340364187955856,0
88040,-0.340364187955856,0
88150,-0.340364187955856,0
88260,-0.340571343898773,0
88370,-0.340985685586929,0
88480,-0.341192841529846,0
88590,-0.340571343898773,0
88700,-0.340157032012939,0
88810,-0.340157032012939,0
88920,-0.340364187955856,0
89030,-0.339949876070023,0
89140,-0.340364187955856,0
89250,-0.34077849984169,0
89350,-0.340985685586929,0
89460,-0.34077849984169,0
89570,-0.340364187955856,0
89680,-0.33932837843895,0
89790,-0.340364187955856,0
89900,-0.33932837843895,0
90010,-0.339121222496033,0
90120,-0.340364187955856,0
90230,-0.340364187955856,0
90340,-0.340157032012939,0
90450,-0.340157032012939,0
90560,-0.339742720127106,0
90660,-0.340571343898773,0
90770,-0.340157032012939,0
90880,-0.340985685586929,0
90990,-0.33932837843895,0
91100,-0.340157032012939,0
91210,-0.341192841529846,0
91320,-0.341814309358597,0
91430,-0.341399997472763,0
91540,-0.340985685586929,0
91650,-0.340157032012939,0
91760,-0.340985685586929,0
91870,-0.339949876070023,0
91980,-0.340571343898773,0
92080,-0.340571343898773,0
92190,-0.34077849984169,0
92300,-0.340364187955856,0
92410,-0.339949876070023,0
92520,-0.339535564184189,0
92630,-0.34077849984169,0
92740,-0.340571343898773,0
92850,-0.339949876070023,0
92960,-0.340571343898773,0
93070,-0.33932837843895,0
93180,-0.340364187955856,0
93290,-0.34077849984169,0
93390,-0.339949876070023,0
93500,-0.339949876070023,0
93610,-0.338914066553116,0
93720,-0.341192841529846,0
93830,-0.340364187955856,0
93940,-0.340364187955856,0
94050,-0.340571343898773,0
94160,-0.340571343898773,0
94270,-0.340571343898773,0
94380,-0.34077849984169,0
94490,-0.34160715341568,0
94600,-0.340157032012939,0
94710,-0.340364187955856,0
94810,-0.339949876070023,0
94920,-0.339535564184189,0
95030,-0.339742720127106,0
95140,-0.340157032012939,0
95250,-0.340571343898773,0
95360,-0.33932837843895,0
95470,-0.340157032012939,0
95580,-0.34077849984169,0
95690,-0.339121222496033,0
95800,-0.339535564184189,0
95910,-0.339121222496033,0
96020,-0.340571343898773,0
96120,-0.339949876070023,0
96230,-0.339535564184189,0
96340,-0.339742720127106,0
96450,-0.338499754667282,0
96560,-0.340364187955856,0
96670,-0.340364187955856,0
96780,-0.340985685586929,0
96890,-0.339535564184189,0
97000,-0.34077849984169,0
97110,-0.339949876070023,0
97220,-0.341399997472763,0
97330,-0.34077849984169,0
97440,-0.340157032012939,0
97540,-0.34077849984169,0
97650,-0.339742720127106,0
97760,-0.340571343898773,0
97870,-0.340571343898773,0
97980,-0.34160715341568,0
98090,-0.339742720127106,0
98200,-0.340157032012939,0
98310,-0.33932837843895,0
98420,-0.340157032012939,0
98530,-0.34077849984169,0
98640,-0.340157032012939,0
98750,-0.340364187955856,0
98850,-0.34160715341568,0
98960,-0.341192841529846,0
99070,-0.340571343898773,0
99180,-0.340157032012939,0
99290,-0.339742720127106,0
99400,-0.340157032012939,0
99510,-0.341192841529846,0
99620,-0.34077849984169,0
99730,-0.339742720127106,0
99840,-0.340571343898773,0
99950,-0.340364187955856,0
100060,-0.340571343898773,0
100170,-0.340364187955856,0
100270,-0.342228621244431,0
100380,-0.339949876070023,0
100490,-0.339535564184189,0
100600,-0.340985685586929,0
100710,-0.34077849984169,0
100820,-0.34077849984169,0
100930,-0.339742720127106,0
101040,-0.33932837843895,0
101150,-0.339742720127106,0
101260,-0.339949876070023,0
101370,-0.341192841529846,0
101480,-0.34077849984169,0
101580,-0.339949876070023,0
101690,-0.34077849984169,0
101800,-0.341192841529846,0
101910,-0.34077849984169,0
102020,-0.34077849984169,0
102130,-0.34077849984169,0
102240,-0.339949876070023,0
102350,-0.340571343898773,0
102460,-0.340364187955856,0
102570,-0.339949876070023,0
102680,-0.340985685586929,0
102790,-0.340364187955856,0
102900,-0.339742720127106,0
103000,-0.340364187955856,0
103110,-0.341192841529846,0
103220,-0.340571343898773,0
103330,-0.339949876070023,0
103440,-0.339949876070023,0
103550,-0.340157032012939,0
103660,-0.340985685586929,0
103770,-0.340985685586929,0
103880,-0.340571343898773,0
103990,-0.339742720127106,0
104100,-0.339949876070023,0
104210,-0.340364187955856,0
104310,-0.34077849984169,0
104420,-0.339121222496033,0
104530,-0.340157032012939,0
104640,-0.339949876070023,0
104750,-0.340571343898773,0
104860,-0.340571343898773,0
104970,-0.340985685586929,0
105080,-0.339949876070023,0
105190,-0.340364187955856,0
105300,-0.340364187955856,0
105410,-0.340985685586929,0
105520,-0.341192841529846,0
105630,-0.340157032012939,0
105730,-0.340571343898773,0
105840,-0.340157032012939,0
105950,-0.340985685586929,0
106060,-0.340364187955856,0
106170,-0.340571343898773,0
106280,-0.34160715341568,0
106390,-0.340985685586929,0
106500,-0.339742720127106,0
106610,-0.339949876070023,0
106720,-0.34077849984169,0
106830,-0.339949876070023,0
106940,-0.339949876070023,0
107040,-0.341399997472763,0
107150,-0.340985685586929,0
107260,-0.340364187955856,0
107370,-0.34077849984169,0
107480,-0.338914066553116,0
107590,-0.34160715341568,0
107700,-0.340364187955856,0
107810,-0.339742720127106,0
107920,-0.34160715341568,0
108030,-0.34077849984169,0
108140,-0.340985685586929,0
108250,-0.340364187955856,0
108360,-0.339742720127106,0
108460,-0.341192841529846,0
108570,-0.339949876070023,0
108680,-0.34077849984169,0
108790,-0.340157032012939,0
108900,-0.340985685586929,0
109010,-0.339949876070023,0
109120,-0.34160715341568,0
109230,-0.340157032012939,0
109340,-0.339535564184189,0
109450,-0.340364187955856,0
109560,-0.340571343898773,0
109670,-0.340364187955856,0
109770,-0.340571343898773,0
109880,-0.340157032012939,0
109990,-0.340364187955856,0
110100,-0.341192841529846,0
110210,-0.340985685586929,0
110320,-0.341399997472763,0
110430,-0.341192841529846,0
110540,-0.339742720127106,0
110650,-0.341399997472763,0
110760,-0.340571343898773,0
110870,-0.34160715341568,0
110980,-0.340157032012939,0
111090,-0.339121222496033,0
111190,-0.340157032012939,0
111300,-0.339949876070023,0
111410,-0.339949876070023,0
111520,-0.340364187955856,0
111630,-0.341192841529846,0
111740,-0.340985685586929,0
111850,-0.341192841529846,0
111960,-0.341399997472763,0
112070,-0.340364187955856,0
112180,-0.341192841529846,0
112290,-0.339949876070023,0
112400,-0.339535564184189,0
112500,-0.340157032012939,0
112610,-0.340364187955856,0
112720,-0.340157032012939,0
112830,-0.340157032012939,0
112940,-0.339949876070023,0
113050,-0.340571343898773,0
113160,-0.340571343898773,0
113270,-0.340364187955856,0
113380,-0.340157032012939,0
113490,-0.339121222496033,0
113600,-0.340157032012939,0
113710,-0.34077849984169,0
113820,-0.340571343898773,0
113920,-0.340157032012939,0
114030,-0.340571343898773,0
114140,-0.339121222496033,0
114250,-0.340364187955856,0
114360,-0.339535564184189,0
114470,-0.340157032012939,0
114580,-0.34160715341568,0
114690,-0.340985685586929,0
114800,-0.340364187955856,0
114910,-0.340571343898773,0
115020,-0.341192841529846,0
115130,-0.340364187955856,0
115230,-0.340157032012939,0
115340,-0.33932837843895,0
115450,-0.34077849984169,0
115560,-0.339949876070023,0
115670,-0.341192841529846,0
115780,-0.340985685586929,0
115890,-0.340571343898773,0
116000,-0.340364187955856,0
116110,-0.340571343898773,0
116220,-0.341192841529846,0
116330,-0.34160715341568,0
116440,-0.339949876070023,0
116550,-0.34077849984169,0
116650,-0.339949876070023,0
116760,-0.339949876070023,0
116870,-0.34077849984169,0
116980,-0.341399997472763,0
117090,-0.340985685586929,0
117200,-0.340571343898773,0
117310,-0.340364187955856,0
117420,-0.341399997472763,0
117530,-0.340364187955856,0
117640,-0.340571343898773,0
117750,-0.340985685586929,0
117860,-0.339742720127106,0
117960,-0.340364187955856,0
118070,-0.34077849984169,0
118180,-0.340364187955856,0
118290,-0.339949876070023,0
118400,-0.339742720127106,0
118510,-0.340985685586929,0
118620,-0.341192841529846,0
118730,-0.340985685586929,0
118840,-0.339949876070023,0
118950,-0.34077849984169,0
119060,-0.341192841529846,0
119170,-0.340157032012939,0
119280,-0.341814309358597,0
119380,-0.340985685586929,0
119490,-0.341399997472763,0
119600,-0.340364187955856,0
119710,-0.341399997472763,0
119820,-0.340364187955856,0
119930,-0.340364187955856,0
120040,-0.34077849984169,0
120150,-0.340364187955856,0
120260,-0.339949876070023,0
120370,-0.339742720127106,0
120480,-0.340571343898773,0
120590,-0.340985685586929,0
120690,-0.341192841529846,0
120800,-0.340571343898773,0
120910,-0.34077849984169,0
121020,-0.34077849984169,0
121130,-0.341814309358597,0
121240,-0.340571343898773,0
121350,-0.340364187955856,0
121460,-0.34077849984169,0
121570,-0.341192841529846,0
121680,-0.34077849984169,0
121790,-0.34077849984169,0
121900,-0.340364187955856,0
122010,-0.339949876070023,0
122110,-0.340364187955856,0
122220,-0.340364187955856,0
122330,-0.339949876070023,0
122440,-0.339742720127106,0
122550,-0.34077849984169,0
122660,-0.340985685586929,0
122770,-0.340364187955856,0
122880,-0.340985685586929,0
122990,-0.341192841529846,0
123100,-0.340364187955856,0
123210,-0.340571343898773,0
123320,-0.341399997472763,0
123420,-0.340364187955856,0
123530,-0.34077849984169,0
123640,-0.341192841529846,0
123750,-0.340571343898773,0
123860,-0.341192841529846,0
123970,-0.34077849984169,0
124080,-0.340571343898773,0
124190,-0.340157032012939,0
124300,-0.339949876070023,0
124410,-0.34077849984169,0
124520,-0.338914066553116,0
124630,-0.339742720127106,0
124740,-0.340364187955856,0
124840,-0.340571343898773,0
124950,-0.340985685586929,0
125060,-0.340157032012939,0
125170,-0.341192841529846,0
125280,-0.340571343898773,0
125390,-0.340985685586929,0
125500,-0.339742720127106,0
125610,-0.340985685586929,0
125720,-0.34077849984169,0
125830,-0.340364187955856,0
125940,-0.340571343898773,0
126050,-0.34077849984169,0
126150,-0.340985685586929,0
126260,-0.340364187955856,0
126370,-0.341192841529846,0
126480,-0.34077849984169,0
126590,-0.340985685586929,0
126700,-0.340364187955856,0
126810,-0.341399997472763,0
126920,-0.340985685586929,0
127030,-0.339949876070023,0
127140,-0.340364187955856,0
127250,-0.341192841529846,0
127360,-0.340985685586929,0
127470,-0.340157032012939,0
127570,-0.340985685586929,0
127680,-0.340157032012939,0
127790,-0.339535564184189,0
127900,-0.340571343898773,0
128010,-0.340364187955856,0
128120,-0.340985685586929,0
128230,-0.340364187955856,0
128340,-0.340157032012939,0
128450,-0.340571343898773,0
128560,-0.340571343898773,0
128670,-0.341399997472763,0
128780,-0.340571343898773,0
128880,-0.339949876070023,0
128990,-0.34077849984169,0
129100,-0.340157032012939,0
129210,-0.339535564184189,0
129320,-0.341399997472763,0
129430,-0.341192841529846,0
129540,-0.339535564184189,0
129650,-0.339535564184189,0
129760,-0.340571343898773,0
129870,-0.340571343898773,0
129980,-0.340985685586929,0
130090,-0.340985685586929,0
130200,-0.340571343898773,0
130300,-0.340157032012939,0
130410,-0.34077849984169,0
130520,-0.339949876070023,0
130630,-0.340364187955856,0
130740,-0.339742720127106,0
130850,-0.340985685586929,0
130960,-0.341192841529846,0
131070,-0.34160715341568,0
131180,-0.341814309358597,0
131290,-0.34077849984169,0
131400,-0.340985685586929,0
131510,-0.339949876070023,0
131610,-0.341399997472763,0
131720,-0.340985685586929,0
131830,-0.340157032012939,0
131940,-0.340985685586929,0
132050,-0.340985685586929,0
132160,-0.340985685586929,0
132270,-0.340364187955856,0
132380,-0.339742720127106,0
132490,-0.340364187955856,0
132600,-0.34077849984169,0
132710,-0.339742720127106,0
132820,-0.340571343898773,0
132930,-0.340157032012939,0
133030,-0.340364187955856,0
133140,-0.340571343898773,0
133250,-0.339949876070023,0
133360,-0.340364187955856,0
133470,-0.34077849984169,0
133580,-0.341814309358597,0
133690,-0.339535564184189,0
133800,-0.340985685586929,0
133910,-0.340571343898773,0
134020,-0.34077849984169,0
134130,-0.340571343898773,0
134240,-0.340364187955856,0
134350,-0.339742720127106,0
134450,-0.341192841529846,0
134560,-0.340364187955856,0
134670,-0.341192841529846,0
134780,-0.340985685586929,0
134890,-0.340364187955856,0
135000,-0.340364187955856,0
135110,-0.340364187955856,0
135220,-0.340157032012939,0
135330,-0.342021465301514,0
135440,-0.341192841529846,0
135550,-0.340571343898773,0
135660,-0.340985685586929,0
135760,-0.340364187955856,0
135870,-0.341399997472763,0
135980,-0.34077849984169,0
136090,-0.34077849984169,0
136200,-0.34160715341568,0
136310,-0.34077849984169,0
136420,-0.340985685586929,0
136530,-0.341192841529846,0
136640,-0.340571343898773,0
136750,-0.340571343898773,0
136860,-0.340157032012939,0
136970,-0.340985685586929,0
137080,-0.341192841529846,0
137180,-0.34160715341568,0
137290,-0.34077849984169,0
137400,-0.340364187955856,0
137510,-0.34077849984169,0
137620,-0.33932837843895,0
137730,-0.340364187955856,0
137840,-0.341399997472763,0
137950,-0.339535564184189,0
138060,-0.339742720127106,0
138170,-0.340364187955856,0
138280,-0.340571343898773,0
138390,-0.340985685586929,0
138490,-0.339949876070023,0
138600,-0.340985685586929,0
138710,-0.341192841529846,0
138820,-0.339742720127106,0
138930,-0.339949876070023,0
139040,-0.34077849984169,0
139150,-0.340364187955856,0
139260,-0.339742720127106,0
139370,-0.339742720127106,0
139480,-0.340985685586929,0
139590,-0.34077849984169,0
139700,-0.341192841529846,0
139810,-0.340571343898773,0
139910,-0.340571343898773,0
140020,-0.339742720127106,0
140130,-0.340571343898773,0
140240,-0.341192841529846,0
140350,-0.341192841529846,0
140460,-0.340985685586929,0
140570,-0.34077849984169,0
140680,-0.34077849984169,0
140790,-0.340985685586929,0
140900,-0.339949876070023,0
141010,-0.341399997472763,0
141120,-0.340985685586929,0
141220,-0.340985685586929,0
141330,-0.339742720127106,0
141440,-0.340364187955856,0
141550,-0.340364187955856,0
141660,-0.341399997472763,0
141770,-0.340571343898773,0
141880,-0.340157032012939,0
141990,-0.339949876070023,0
142100,-0.339949876070023,0
142210,-0.341192841529846,0
142320,-0.342850118875504,0
142430,-0.339535564184189,0
142540,-0.341192841529846,0
142640,-0.340364187955856,0
142750,-0.341192841529846,0
142860,-0.340571343898773,0
142970,-0.341399997472763,0
143080,-0.342228621244431,0
143190,-0.340157032012939,0
143300,-0.341399997472763,0
143410,-0.339949876070023,0
143520,-0.340157032012939,0
143630,-0.340157032012939,0
143740,-0.341192841529846,0
143850,-0.340157032012939,0
143950,-0.34077849984169,0
144060,-0.340985685586929,0
144170,-0.339121222496033,0
144280,-0.339121222496033,0
144390,-0.341192841529846,0
144500,-0.340364187955856,0
144610,-0.339742720127106,0
144720,-0.340571343898773,0
144830,-0.340157032012939,0
144940,-0.341192841529846,0
145050,-0.341399997472763,0
145160,-0.342021465301514,0
145270,-0.34160715341568,0
145370,-0.340364187955856,0
145480,-0.339742720127106,0
145590,-0.341399997472763,46.1917276205291
145700,-0.340157032012939,46.5823596450215
145810,-0.340985685586929,46.1917276205291
145920,-0.340985685586929,46.1917276205291
146030,-0.340571343898773,46.3870506572677
146140,-0.340364187955856,46.6800281878833
146250,-0.340571343898773,46.5823736940064
146360,-0.340157032012939,46.3870647062526
146470,-0.340364187955856,46.3870647062526
146580,-0.34160715341568,51.9967331361893
146680,-0.340985685586929,51.4758956401854
146790,-0.339949876070023,51.7363081441816
146900,-0.341399997472763,51.2154706481778
147010,-0.339949876070023,51.3890789841752
147120,-0.340157032012939,51.5626873201726
147230,-0.340571343898773,51.3022748161765
147340,-0.341192841529846,50.9550456561701
147450,-0.339742720127106,51.3890664961637
147560,-0.341399997472763,51.5626748321611
147670,-0.341814309358597,55.5469637899038
147780,-0.342021465301514,59.2329870556616
147890,-0.340157032012939,59.375030652481
148000,-0.340571343898773,59.4460524508906
148100,-0.340985685586929,59.3039986365776
148210,-0.339742720127106,59.5170640318066
148320,-0.341192841529846,59.0199012254453
148430,-0.340364187955856,59.3039986365776
148540,-0.340985685586929,59.090923023855
148650,-0.341192841529846,59.090923023855
148760,-0.340571343898773,59.232976838168
148870,-0.339949876070023,59.3750204349873
148980,-0.341192841529846,59.090923023855
149090,-0.339949876070023,59.2329666206743
149200,-0.34077849984169,59.0199012254453
149310,-0.340571343898773,59.5170640318066
149410,-0.340571343898773,59.7301396445293
149520,-0.341192841529846,59.5170640318066
149630,-0.34077849984169,59.58809604771
149740,-0.340571343898773,59.5170742493003
149850,-0.34077849984169,59.730149862023
149960,-0.34243580698967,65.4450440574337
150070,-0.340571343898773,65.505138881204
150180,-0.34077849984169,65.7455268217783
150290,-0.339949876070023,65.9859061168594
150400,-0.339949876070023,66.286388881204
150510,-0.341192841529846,66.286388881204
150620,-0.340571343898773,66.286388881204
150730,-0.340157032012939,66.4065785287445
150830,-0.34160715341568,65.9859061168594
150940,-0.340364187955856,66.1661992336635
151050,-0.340157032012939,66.4666819980081
151160,-0.341399997472763,66.5267768217783
151270,-0.340571343898773,66.5868716455486
151380,-0.34077849984169,66.4666819980081
151490,-0.341399997472763,66.286388881204
151600,-0.34077849984169,65.8657164693189
151710,-0.339949876070023,65.9859061168594
151820,-0.339949876070023,66.4065785287445
151930,-0.340985685586929,65.9859061168594
152040,-0.341192841529846,65.5652337049743
152140,-0.342021465301514,65.0844664693189
152250,-0.340364187955856,65.1445612930891
152360,-0.340985685586929,65.1445612930891
152470,-0.340571343898773,64.9642768217783
152580,-0.339949876070023,65.2647595861229
152690,-0.340571343898773,65.445052702927
152800,-0.341399997472763,64.9642854672716
152910,-0.340364187955856,64.8440958197311
153020,-0.340157032012939,65.0243802910419
153130,-0.339949876070023,65.1445699385824
153240,-0.341192841529846,64.7238975266973
153350,-0.340571343898773,64.4835182316162
153460,-0.340571343898773,64.60371652465
153560,-0.340571343898773,64.6638113484203
153670,-0.341192841529846,64.6638113484203
153780,-0.340985685586929,64.5436130553865
153890,-0.340985685586929,64.4234147623527
154000,-0.34077849984169,64.1229406435014
154110,-0.340157032012939,64.2431302910419
154220,-0.342021465301514,64.0027509959608
154330,-0.340571343898773,64.1830441127649
154440,-0.340571343898773,64.3032424057987
154550,-0.341814309358597,64.0027596414541
154660,-0.340985685586929,63.9426561721906
154770,-0.340157032012939,64.1830441127649
154870,-0.340985685586929,63.8825613484203
154980,-0.34077849984169,64.0628544652244
155090,-0.340157032012939,64.3032424057987
155200,-0.340985685586929,64.3032424057987
155310,-0.340364187955856,64.1229579344879
155420,-0.341399997472763,63.8224751701433
155530,-0.34077849984169,63.7022855226028
155640,-0.341399997472763,63.7022855226028
155750,-0.34077849984169,63.6421906988325
155860,-0.340571343898773,63.522001051292
155970,-0.341192841529846,63.1614234631771
156080,-0.340364187955856,63.0412338156366
156190,-0.339949876070023,63.4018114037515
156290,-0.339949876070023,64.2431562275217
156400,-0.34160715341568,63.6421993443258
156510,-0.34077849984169,63.7623976373596
156620,-0.340157032012939,63.8224924611299
156730,-0.340571343898773,64.0027855779339
156840,-0.340571343898773,64.0027855779339
156950,-0.340364187955856,64.3032683422785
157060,-0.340157032012939,64.9042252254745
157170,-0.341192841529846,64.6037424611299
157280,-0.340985685586929,64.7239321086704
157390,-0.339949876070023,64.7239321086704
157500,-0.34077849984169,64.5436476373596
157600,-0.341192841529846,64.243164873015
157710,-0.341399997472763,64.1830700492447
157820,-0.341192841529846,63.8825872849001
157930,-0.340364187955856,64.0027769324407
158040,-0.340157032012939,64.243164873015
158150,-0.341399997472763,63.5821045205555
158260,-0.339949876070023,63.3417165799812
158370,-0.341192841529846,63.3417165799812
158480,-0.341814309358597,62.9210441680961
158590,-0.341399997472763,62.4402769324407
158700,-0.340985685586929,62.3200786394069
158810,-0.340571343898773,62.1998889918663
158920,-0.340985685586929,62.2599838156366
159020,-0.340985685586929,62.3801734631771
159130,-0.341814309358597,62.4402682869474
159240,-0.340157032012939,62.8609406988325
159350,-0.340157032012939,62.9210355226028
159460,-0.340571343898773,62.6806562275217
159570,-0.340571343898773,62.9210441680961
159680,-0.340985685586929,62.6806562275217
159790,-0.340157032012939,62.9210441680961
159900,-0.34077849984169,62.9811476373596
160010,-0.340985685586929,62.8609493443258
160120,-0.340571343898773,62.8008545205555
160230,-0.34160715341568,62.5003717562109
160330,-0.34077849984169,62.3200872849001
160440,-0.340571343898773,62.2599924611299
160550,-0.340985685586929,62.4402769324407
160660,-0.34160715341568,62.2599924611299
160770,-0.340364187955856,62.1398028135893
160880,-0.340364187955856,62.4402855779339
160990,-0.34077849984169,62.1999062828529
161100,-0.340157032012939,62.1999062828529
161210,-0.341192841529846,62.0196131660488
161320,-0.341814309358597,61.839328694738
161430,-0.34160715341568,61.2984666353123
161540,-0.339742720127106,61.7792338709677
161650,-0.34077849984169,62.0797166353123
161750,-0.34077849984169,62.4402942234272
161860,-0.340571343898773,62.3201045758867
161970,-0.340157032012939,62.4402942234272
162080,-0.34077849984169,62.5003976926908
162190,-0.34160715341568,61.9595356332651
162300,-0.341192841529846,61.9595356332651
162410,-0.341814309358597,61.53886322138
162520,-0.340985685586929,61.53886322138
162630,-0.340985685586929,61.5989580451502
162740,-0.341192841529846,61.4186649283462
162850,-0.340364187955856,61.2984752808056
162960,-0.340985685586929,61.3585701045759
163060,-0.340364187955856,61.2383804570354
163170,-0.340157032012939,61.4186649283462
163280,-0.340364187955856,61.4787597521164
163390,-0.34160715341568,61.1782769877718
163500,-0.340157032012939,61.4787597521164
163610,-0.34077849984169,61.4787597521164
163720,-0.340157032012939,61.5989493996569
163830,-0.340985685586929,61.5388459303934
163940,-0.342021465301514,61.6590442234272
164050,-0.340985685586929,61.5388459303934
164160,-0.340985685586929,61.4787424611299
164270,-0.339949876070023,61.4787424611299
164380,-0.341192841529846,61.118164873015
164480,-0.341192841529846,61.118164873015
164590,-0.341192841529846,60.9378717562109
164700,-0.341192841529846,60.6373889918663
164810,-0.340364187955856,60.9979665799812
164920,-0.340571343898773,60.9378717562109
165030,-0.339742720127106,61.0580614037515
165140,-0.340985685586929,61.178251051292
165250,-0.34077849984169,61.1181562275217
165360,-0.340364187955856,61.2383458750623
165470,-0.34077849984169,61.4186389918663
165580,-0.340157032012939,61.5989234631771
165690,-0.34077849984169,61.3585441680961
165790,-0.340157032012939,61.2984493443258
165900,-0.341192841529846,61.2383545205555
166010,-0.341399997472763,61.1782596967853
166120,-0.340571343898773,61.5989321086704
166230,-0.340571343898773,61.5388372849001
166340,-0.339949876070023,61.8393200492447
166450,-0.340571343898773,61.8393200492447
166560,-0.339949876070023,61.8393200492447
166670,-0.340571343898773,61.8393200492447
166780,-0.340364187955856,62.1398028135893
166890,-0.339949876070023,62.2599924611299
167000,-0.340571343898773,62.1398028135893
167110,-0.340364187955856,62.0196131660488
167210,-0.342021465301514,61.7792338709677
167320,-0.339949876070023,61.9595183422785
167430,-0.340985685586929,61.8393200492447
167540,-0.339949876070023,62.0196045205555
167650,-0.34077849984169,62.1398028135893
167760,-0.340157032012939,62.3801907541637
167870,-0.340571343898773,62.5003890471975
167980,-0.340571343898773,62.5604838709677
168090,-0.341192841529846,62.2600011066231
168200,-0.340571343898773,62.6806735185083
168310,-0.340571343898773,62.6806735185083
168420,-0.341399997472763,62.4402855779339
168520,-0.341192841529846,62.6205700492447
168630,-0.340985685586929,62.6205700492447
168740,-0.34077849984169,62.4402855779339
168850,-0.340571343898773,62.5604838709677
168960,-0.34160715341568,62.3200959303934
169070,-0.340571343898773,62.1999062828529
169180,-0.341814309358597,61.9595269877718
169290,-0.339121222496033,62.3201045758867
169400,-0.340364187955856,62.6205873402313
169510,-0.340364187955856,62.7407769877718
169620,-0.340571343898773,62.9811649283462
169730,-0.341399997472763,62.8008718115421
169840,-0.34077849984169,62.7407769877718
169940,-0.34160715341568,62.6205873402313
170050,-0.34160715341568,62.2600097521164
170160,-0.341814309358597,61.7191476926908
170270,-0.339949876070023,61.7191476926908
170380,-0.340571343898773,62.0196304570354
170490,-0.340157032012939,62.1999149283462
170600,-0.339949876070023,62.2600097521164
170710,-0.34077849984169,62.1999149283462
170820,-0.341814309358597,61.8393373402313
170930,-0.341192841529846,61.5989493996569
171040,-0.34160715341568,61.1782769877718
171150,-0.340571343898773,61.3585701045759
171250,-0.340985685586929,61.3585701045759
171360,-0.340364187955856,61.2383804570354
171470,-0.340157032012939,61.4186649283462
171580,-0.342021465301514,61.1782856332651
171690,-0.340985685586929,61.2984752808056
171800,-0.34077849984169,61.4186735738394
171910,-0.34077849984169,61.2984839262989
172020,-0.340571343898773,61.1782942787584
172130,-0.34077849984169,61.3585873955624
172240,-0.341192841529846,60.9980098074476
172350,-0.34160715341568,60.877820159907
172460,-0.340985685586929,61.1181994549881
172570,-0.340571343898773,61.3585873955624
172670,-0.339742720127106,61.7191649836773
172780,-0.341192841529846,61.5388718668732
172890,-0.341814309358597,61.2984925717922
173000,-0.34077849984169,61.3585960410557
173110,-0.340571343898773,61.7191736291706
173220,-0.340364187955856,61.6590788054003
173330,-0.340157032012939,61.6590788054003
173440,-0.340157032012939,61.7792684529408
173550,-0.341192841529846,61.5989753361368
173660,-0.340571343898773,61.7191736291706
173770,-0.341399997472763,61.3585960410557
173880,-0.341399997472763,61.1783029242516
173980,-0.340364187955856,61.3585960410557
174090,-0.341192841529846,61.1783029242516
174200,-0.34077849984169,61.418690864826
174310,-0.340364187955856,61.5388805123665
174420,-0.341192841529846,61.3585873955624
174530,-0.34077849984169,61.418690864826
174640,-0.340985685586929,61.5989753361368
174750,-0.34077849984169,61.4787856885962
174860,-0.340985685586929,61.2984925717922
174970,-0.34077849984169,61.2984925717922
175080,-0.34077849984169,61.1182081004814
175190,-0.340364187955856,61.3585960410557
175300,-0.341399997472763,61.4787856885962
175400,-0.340571343898773,61.7792684529408
175510,-0.34077849984169,61.4787943340895
175620,-0.340157032012939,61.6590788054003
175730,-0.340985685586929,61.5989753361368
175840,-0.340571343898773,61.5989753361368
175950,-0.340571343898773,61.4787856885962
176060,-0.340364187955856,61.5989753361368
176170,-0.340571343898773,61.8994581004814
176280,-0.34077849984169,62.0196563935152
176390,-0.339949876070023,62.5605184529408
176500,-0.340364187955856,62.7408115697449
176610,-0.340571343898773,62.8610098627787
176710,-0.34077849984169,62.9812081558125
176820,-0.341399997472763,62.6807253914679
176930,-0.340985685586929,62.6807253914679
177040,-0.339949876070023,62.8009150390085
177150,-0.340571343898773,62.6807253914679
177260,-0.341399997472763,62.3802426271233
177370,-0.341399997472763,62.4403374508936
177480,-0.34077849984169,62.2600529795828
177590,-0.339949876070023,62.5004322746639
177700,-0.340364187955856,62.4403374508936
177810,-0.340985685586929,62.4403374508936
177920,-0.339535564184189,63.16148398163
178030,-0.34077849984169,63.2215874508936
178130,-0.339742720127106,63.5821650390085
178240,-0.340571343898773,63.4018805676977
178350,-0.341192841529846,63.4018805676977
178460,-0.341399997472763,63.3417857439274
178570,-0.341192841529846,63.3417857439274
178680,-0.340571343898773,63.5220788607315
178790,-0.340985685586929,63.3417857439274
178900,-0.340157032012939,63.4619753914679
179010,-0.341192841529846,63.0413029795828
179120,-0.340157032012939,63.2816909201571
179230,-0.34077849984169,63.2816909201571
179340,-0.340571343898773,63.2215960963869
179440,-0.340571343898773,63.2816909201571
179550,-0.340364187955856,63.2215960963869
179660,-0.340364187955856,63.3417857439274
179770,-0.341192841529846,63.0413029795828
179880,-0.341399997472763,62.9812081558125
179990,-0.341814309358597,62.861018508272
180100,-0.340364187955856,62.9211133320423
180210,-0.341192841529846,62.7408202152382
180320,-0.340157032012939,62.6807253914679
180430,-0.340364187955856,62.7408202152382
180540,-0.340571343898773,62.5605357439274
180650,-0.340157032012939,62.6807253914679
180760,-0.341399997472763,62.3802426271233
180860,-0.341192841529846,62.0196650390085
180970,-0.341399997472763,61.7792770984341
181080,-0.340364187955856,61.7792770984341
181190,-0.34077849984169,62.139854686549
181300,-0.34160715341568,61.6590874508936
181410,-0.340985685586929,61.6590874508936
181520,-0.341814309358597,61.1182253914679
181630,-0.340157032012939,61.2985098627787
181740,-0.340571343898773,61.1783202152382
181850,-0.340571343898773,61.1783202152382
181960,-0.34077849984169,61.1182253914679
182070,-0.340571343898773,61.298518508272
182170,-0.340364187955856,61.3586133320423
182280,-0.339949876070023,61.5388978033531
182390,-0.340364187955856,61.8393805676977
182500,-0.34077849984169,61.9595788607315
182610,-0.341399997472763,61.8393892131909
182720,-0.341192841529846,61.7191909201571
182830,-0.340985685586929,61.5989926271233
182940,-0.34077849984169,61.8393805676977
183050,-0.341192841529846,61.6590874508936
183160,-0.34077849984169,61.9595702152382
183270,-0.341399997472763,61.2985098627787
183380,-0.340571343898773,61.2384150390085
183490,-0.342021465301514,60.7576478033531
183590,-0.340364187955856,60.8177426271233
183700,-0.340364187955856,61.1182253914679
183810,-0.34243580698967,60.6374495103193
183920,-0.339949876070023,61.1182167459747
184030,-0.340571343898773,61.4186995103193
184140,-0.340571343898773,61.7792770984341
184250,-0.340364187955856,61.6590874508936
184360,-0.341399997472763,61.4186995103193
184470,-0.340571343898773,61.2985098627787
184580,-0.340364187955856,61.1783202152382
184690,-0.340157032012939,61.358604686549
184800,-0.340364187955856,61.7792770984341
184900,-0.340985685586929,61.8393719222044
185010,-0.341399997472763,61.8994667459747
185120,-0.340985685586929,61.7792684529408
185230,-0.340571343898773,61.8994667459747
185340,-0.340985685586929,61.7191736291706
185450,-0.341814309358597,61.2384063935152
185560,-0.340364187955856,61.7191736291706
185670,-0.340571343898773,61.8393719222044
185780,-0.340985685586929,61.7792684529408
185890,-0.340364187955856,61.8994581004814
186000,-0.34077849984169,61.8393632767111
186110,-0.339535564184189,62.1999322193327
186220,-0.341192841529846,62.1999322193327
186320,-0.340571343898773,62.5004149836773
186430,-0.34077849984169,62.5605184529408
186540,-0.341192841529846,62.3802253361368
186650,-0.340985685586929,62.0196477480219
186760,-0.341399997472763,61.9595529242516
186870,-0.341192841529846,62.1398373955624
186980,-0.340157032012939,62.3201218668732
187090,-0.340364187955856,62.3802166906435
187200,-0.34160715341568,62.0196391025286
187310,-0.341192841529846,61.719156338184
187420,-0.340157032012939,61.719156338184
187530,-0.339535564184189,62.1999235738394
187630,-0.341192841529846,62.0196304570354
187740,-0.340985685586929,62.1398201045759
187850,-0.339121222496033,62.8008804570354
187960,-0.340571343898773,62.7407856332651
188070,-0.340364187955856,62.9811735738394
188180,-0.341192841529846,62.8609752808056
188290,-0.340985685586929,62.6806821640015
188400,-0.340571343898773,62.8609752808056
188510,-0.340985685586929,62.8008718115421
188620,-0.339742720127106,63.1614493996569
188730,-0.340157032012939,63.3417338709677
188840,-0.341399997472763,63.2215442234272
188950,-0.340571343898773,63.2816390471975
189050,-0.341399997472763,63.1013459303934
189160,-0.341192841529846,62.8609579898191
189270,-0.339535564184189,63.4018200492447
189380,-0.341192841529846,63.2215269324407
189490,-0.341399997472763,63.0412338156366
189600,-0.34160715341568,62.6205614037515
189710,-0.340364187955856,62.8008545205555
189820,-0.34077849984169,62.7407596967853
189930,-0.34077849984169,62.680664873015
190040,-0.341192841529846,62.4402769324407
190150,-0.34077849984169,62.3801821086704
190260,-0.340364187955856,62.5003717562109
190360,-0.340985685586929,62.1998889918663
190470,-0.34077849984169,62.0796993443258
190580,-0.340571343898773,62.0796993443258
190690,-0.340985685586929,62.0195958750623
190800,-0.341399997472763,62.0195958750623
190910,-0.340571343898773,62.1397941680961
191020,-0.340364187955856,62.0196045205555
191130,-0.34077849984169,61.9595096967853
191240,-0.34077849984169,62.1398028135893
191350,-0.341192841529846,62.1998976373596
191460,-0.340364187955856,62.3200872849001
191570,-0.340157032012939,62.2599924611299
191680,-0.341814309358597,61.8393200492447
191780,-0.340985685586929,61.8393200492447
191890,-0.341814309358597,61.1782683422785
192000,-0.340571343898773,61.2383631660488
192110,-0.340571343898773,60.9979838709677
192220,-0.340571343898773,60.9979838709677
192330,-0.340157032012939,61.2984666353123
192440,-0.34077849984169,61.4787597521164
192550,-0.34077849984169,61.5989580451502
192660,-0.340364187955856,61.6590528689205
192770,-0.34160715341568,61.4787683976097
192880,-0.341192841529846,61.1782856332651
192990,-0.341399997472763,61.1181908094948
193090,-0.340364187955856,61.0580959857246
193200,-0.340985685586929,60.997992516461
193310,-0.34077849984169,60.9378976926908
193420,-0.340157032012939,61.0580873402313
193530,-0.34077849984169,60.9378976926908
193640,-0.340985685586929,60.7576045758867
193750,-0.340985685586929,60.8176993996569
193860,-0.340571343898773,61.0580873402313
193970,-0.339742720127106,61.6590442234272
194080,-0.340985685586929,61.4787511066231
194190,-0.341814309358597,61.2984666353123
194300,-0.34243580698967,60.6374062828529
194410,-0.34160715341568,60.276828694738
194510,-0.339949876070023,60.4571131660488
194620,-0.34160715341568,60.0364407541637
194730,-0.340985685586929,60.1566304017042
194840,-0.341399997472763,60.0965355779339
194950,-0.340985685586929,60.2167252254745
195060,-0.341814309358597,59.7960528135893
195170,-0.342228621244431,59.3753804017042
195280,-0.339949876070023,59.8561476373596
195390,-0.340157032012939,60.0965355779339
195500,-0.34077849984169,60.3970183422785
195610,-0.34077849984169,60.2167338709677
195720,-0.341192841529846,60.0364407541637
195820,-0.340985685586929,59.9162424611299
195930,-0.341399997472763,59.7359493443258
196040,-0.340157032012939,59.8561389918663
196150,-0.34077849984169,59.7359493443258
196260,-0.342021465301514,59.1349924611299
196370,-0.34077849984169,59.0148028135893
196480,-0.341192841529846,58.8946045205555
196590,-0.340571343898773,59.1349924611299
196700,-0.341192841529846,59.1349924611299
196810,-0.340571343898773,59.2551907541637
196920,-0.340364187955856,59.3753804017042
197030,-0.340985685586929,59.4354752254745
197140,-0.341399997472763,59.2551821086704
197240,-0.340985685586929,59.3753717562109
197350,-0.341192841529846,59.1950786394069
197460,-0.341192841529846,59.4354579344879
197570,-0.34077849984169,59.3152682869474
197680,-0.341192841529846,59.074880346373
197790,-0.34077849984169,59.5556562275217
197900,-0.341399997472763,59.1349838156366
198010,-0.341399997472763,58.8945958750623
198120,-0.340985685586929,58.7743975820284
198230,-0.341192841529846,58.5340096414541
198340,-0.340157032012939,58.894587229569
198450,-0.340364187955856,58.9546820533392
198550,-0.340571343898773,58.894587229569
198660,-0.34160715341568,58.4739148176838
198770,-0.34077849984169,58.3537251701433
198880,-0.339949876070023,58.6542079344879
198990,-0.341399997472763,58.6542079344879
199100,-0.340985685586929,58.6542079344879
199210,-0.340571343898773,58.6542079344879
199320,-0.34160715341568,58.4739234631771
199430,-0.339121222496033,59.2551734631771
199540,-0.340364187955856,59.2551734631771
199650,-0.34077849984169,59.1950786394069
199760,-0.340364187955856,59.3753717562109
199870,-0.340364187955856,59.3753717562109
199970,-0.341192841529846,59.2551734631771
200080,-0.34077849984169,58.8946045205555
200190,-0.34077849984169,59.0148028135893
200300,-0.341814309358597,58.6542252254745
200410,-0.34077849984169,58.6542252254745
200520,-0.340157032012939,58.9547079898191
200630,-0.339535564184189,59.3753804017042
200740,-0.34160715341568,59.3152855779339
200850,-0.341399997472763,59.2551907541637
200960,-0.341814309358597,58.7744235185083
201070,-0.341399997472763,58.4739407541637
201180,-0.341192841529846,58.5941304017042
201280,-0.33932837843895,59.1350011066231
201390,-0.341399997472763,58.7744235185083
201500,-0.341192841529846,58.2936562828529
201610,-0.340364187955856,58.5340442234272
201720,-0.34160715341568,58.3537597521164
201830,-0.340571343898773,57.9330873402313
201940,-0.340364187955856,57.9931821640015
202050,-0.340571343898773,57.9330873402313
202160,-0.34077849984169,58.0532856332651
202270,-0.339949876070023,58.3537683976097
202380,-0.34077849984169,58.2936735738394
202490,-0.340985685586929,58.2936735738394
202600,-0.340571343898773,58.0532942787584
202700,-0.34243580698967,57.3922339262989
202810,-0.341192841529846,57.4523287500692
202920,-0.340157032012939,57.5725183976097
203030,-0.340571343898773,57.812906338184
203140,-0.340364187955856,58.0532942787584
203250,-0.341192841529846,57.572527043103
203360,-0.34077849984169,57.6927253361368
203470,-0.34077849984169,57.8730184529408
203580,-0.34077849984169,58.1134063935152
203690,-0.341399997472763,57.8129236291706
203800,-0.340364187955856,57.9331132767111
203910,-0.341399997472763,57.752820159907
204010,-0.341192841529846,57.752820159907
204120,-0.342642962932587,57.2119494549881
204230,-0.340985685586929,57.031656338184
204340,-0.339535564184189,57.4523287500692
204450,-0.340985685586929,57.3922252808056
204560,-0.340985685586929,57.2720269877718
204670,-0.341814309358597,57.0316476926908
204780,-0.341399997472763,57.0316476926908
204890,-0.339742720127106,57.2720269877718
205000,-0.340985685586929,57.0917338709677
205110,-0.340571343898773,57.151828694738
205220,-0.340985685586929,57.0917252254745
205330,-0.340985685586929,57.1518200492447
205430,-0.341192841529846,56.9114321086704
205540,-0.34077849984169,56.7311476373596
205650,-0.34160715341568,56.7912424611299
205760,-0.339742720127106,57.1518200492447
205870,-0.341399997472763,57.2720096967853
205980,-0.341399997472763,57.0316217562109
206090,-0.341192841529846,56.8513286394069
206200,-0.34077849984169,56.7912338156366
206310,-0.340985685586929,56.5508458750623
206420,-0.340157032012939,56.731130346373
206530,-0.340985685586929,56.6710268771095
206640,-0.339949876070023,56.79121652465
206740,-0.340985685586929,56.9715009959608
206850,-0.339949876070023,57.3320785840757
206960,-0.341192841529846,57.392173407846
207070,-0.340571343898773,57.3320785840757
207180,-0.341192841529846,57.2719837603054
207290,-0.340364187955856,57.392173407846
207400,-0.340157032012939,57.392173407846
207510,-0.341814309358597,57.0916906435014
207620,-0.340985685586929,57.0916906435014
207730,-0.341814309358597,56.8513113484203
207840,-0.340571343898773,56.8513113484203
207950,-0.341192841529846,56.4306389365352
208060,-0.340985685586929,56.4306389365352
208160,-0.340157032012939,56.9114061721906
208270,-0.340364187955856,57.5123717008798
208380,-0.339949876070023,57.9931389365352
208490,-0.340985685586929,57.6926561721906
208600,-0.34077849984169,57.9330441127649
208710,-0.341399997472763,57.8128544652244
208820,-0.34077849984169,57.9931475820284
208930,-0.340571343898773,58.1133458750623
209040,-0.341192841529846,58.293630346373
209150,-0.341192841529846,58.5941044652244
209260,-0.34160715341568,58.113337229569
209370,-0.340985685586929,57.8729492889946
209470,-0.340571343898773,57.9330441127649
209580,-0.34077849984169,57.9330441127649
209690,-0.340364187955856,58.1734320533392
209800,-0.34077849984169,58.2335355226028
209910,-0.342021465301514,58.053251051292
210020,-0.340157032012939,58.053251051292
210130,-0.340985685586929,57.9931475820284
210240,-0.34160715341568,58.113337229569
210350,-0.340157032012939,58.2936217008798
210460,-0.340157032012939,58.5941044652244
210570,-0.339949876070023,58.7743889365352
210680,-0.340157032012939,59.0748717008798
210790,-0.341192841529846,58.8945785840757
210890,-0.340157032012939,58.954673407846
211000,-0.340985685586929,58.954673407846
211110,-0.340364187955856,59.2551561721906
211220,-0.339742720127106,59.6157337603054
211330,-0.34160715341568,59.4955441127649
211440,-0.340364187955856,59.7359320533392
211550,-0.340985685586929,59.6758285840757
211660,-0.341814309358597,59.4955441127649
211770,-0.34160715341568,59.2551561721906
211880,-0.340364187955856,59.5556389365352
211990,-0.340157032012939,59.91621652465
212100,-0.340571343898773,60.0364148176838
212200,-0.34160715341568,59.9162251701433
212310,-0.34160715341568,59.4955527582582
212420,-0.341192841529846,59.2551648176838
212530,-0.340985685586929,59.13496652465
212640,-0.340985685586929,59.3152509959608
212750,-0.340985685586929,59.2551475266973
212860,-0.341192841529846,58.8945699385824
212970,-0.34077849984169,59.0748630553865
213080,-0.341192841529846,59.0147682316162
213190,-0.341399997472763,58.7743802910419
213300,-0.342228621244431,58.5940958197311
213410,-0.340985685586929,58.0532251148121
213520,-0.339949876070023,58.1734147623527
213620,-0.340157032012939,58.3536992336635
213730,-0.340364187955856,58.3536992336635
213840,-0.341192841529846,58.1133112930891
213950,-0.340157032012939,58.4137940574337
214060,-0.340364187955856,58.5339837049743
214170,-0.339949876070023,58.7743630000553
214280,-0.339949876070023,59.315225059481
214390,-0.341192841529846,59.1950267664472
214500,-0.341399997472763,58.8344491783323
214610,-0.340985685586929,58.4137767664472
214720,-0.341192841529846,58.5339664139877
214830,-0.340985685586929,58.6541560615282
214940,-0.34077849984169,58.9546388258728
215040,-0.340985685586929,59.0748284734134
215150,-0.34077849984169,59.1950267664472
215260,-0.341399997472763,58.594061237758
215370,-0.34160715341568,58.5339664139877
215480,-0.341192841529846,58.5339664139877
215590,-0.340985685586929,58.3536732971836
215700,-0.340985685586929,58.5339577684944
215810,-0.34243580698967,57.9930870635755
215920,-0.339949876070023,58.113276711116
216030,-0.340157032012939,58.2334663586566
216140,-0.340985685586929,58.173362889393
216250,-0.340157032012939,58.1132680656227
216350,-0.340985685586929,58.0531645963592
216460,-0.340364187955856,58.2334577131633
216570,-0.340985685586929,58.1132594201295
216680,-0.340985685586929,58.5339318320146
216790,-0.340571343898773,58.7142249488187
216900,-0.341192841529846,58.4137421844741
217010,-0.34305727481842,57.6925870082443
217120,-0.340985685586929,57.5122938914403
217230,-0.340157032012939,57.8127766557849
217340,-0.340364187955856,57.9329663033254
217450,-0.340364187955856,58.0531559508659
217560,-0.341192841529846,57.9329576578321
217670,-0.340985685586929,58.0531473053727
217770,-0.340364187955856,58.0531473053727
217880,-0.340364187955856,58.3536300697173
217990,-0.340364187955856,58.5940180102916
218100,-0.339742720127106,59.4353628340619
218210,-0.340571343898773,59.5555611270957
218320,-0.34077849984169,59.1949921844741
218430,-0.34160715341568,59.0147077131633
218540,-0.340364187955856,59.1950008299674
218650,-0.341192841529846,59.3752853012781
218760,-0.34077849984169,59.5555784180822
218870,-0.340157032012939,59.4353887705417
218980,-0.340364187955856,59.6156818873458
219080,-0.340985685586929,59.495483594312
219190,-0.341192841529846,59.4353887705417
219300,-0.340571343898773,59.5555870635755
219410,-0.341399997472763,59.4954922398052
219520,-0.340364187955856,59.6156818873458
219630,-0.340364187955856,59.9762594754606
219740,-0.34077849984169,59.6757853566093
219850,-0.340985685586929,59.7959750041498
219960,-0.34077849984169,59.9762681209539
220070,-0.341399997472763,59.9161732971836
220180,-0.341192841529846,59.7959750041498
220290,-0.341192841529846,59.7358801803796
220400,-0.340364187955856,59.6757853566093
220500,-0.340571343898773,59.7959836496431
220610,-0.34077849984169,59.5556043545621
220720,-0.34077849984169,59.6157078238256
220830,-0.34077849984169,59.3753285287445
220940,-0.340571343898773,59.5556216455486
221050,-0.339949876070023,59.7359061168594
221160,-0.340985685586929,59.7960009406297
221270,-0.341399997472763,59.4955181762851
221380,-0.340985685586929,59.2551302357107
221490,-0.340985685586929,59.4955095307918
221600,-0.34077849984169,59.5556130000553
221720,-0.340571343898773,59.9161905881702
221810,-0.340364187955856,59.9762854119405
221920,-0.340364187955856,60.2166733525148
222030,-0.341399997472763,60.0964837049743
222140,-0.340571343898773,59.9762940574337
222250,-0.341399997472763,59.6758112930891
222360,-0.342021465301514,59.0748544098932
222470,-0.341192841529846,59.0147595861229
222580,-0.340157032012939,59.1950440574337
222690,-0.340985685586929,59.3152337049743
222800,-0.340157032012939,59.4955181762851
222910,-0.341399997472763,59.2551302357107
223020,-0.34077849984169,59.3753285287445
223130,-0.340985685586929,59.4354233525148
223230,-0.341814309358597,59.3753285287445
223340,-0.341399997472763,59.255138881204
223450,-0.34077849984169,59.1950440574337
223560,-0.340985685586929,59.1349405881702
223670,-0.340157032012939,59.1950354119405
223780,-0.341192841529846,59.0748371189067
223890,-0.342021465301514,59.0748371189067
224000,-0.340985685586929,58.8344491783323
224110,-0.340157032012939,59.0748371189067
224220,-0.34077849984169,59.315225059481
224330,-0.340571343898773,59.1950354119405
224440,-0.341814309358597,58.7142681762851
224540,-0.341399997472763,58.2935957643999
224650,-0.342228621244431,57.692638881204
224760,-0.34077849984169,57.8128371742378
224870,-0.340364187955856,57.7527423504675
224980,-0.339535564184189,58.1734147623527
225090,-0.341192841529846,57.9330268217783
225200,-0.341192841529846,57.5123544098932
225310,-0.340985685586929,57.692638881204
225420,-0.340571343898773,57.6325440574337
225530,-0.342642962932587,57.1517768217783
225640,-0.339949876070023,57.692638881204
225750,-0.34077849984169,57.9330268217783
225860,-0.339742720127106,58.1133112930891
225960,-0.340571343898773,57.9931216455486
226070,-0.341192841529846,57.8128285287445
226180,-0.340985685586929,57.9931130000553
226290,-0.340985685586929,58.1733974713661
226400,-0.340157032012939,58.4738802357107
226510,-0.340571343898773,58.5940785287445
226620,-0.34077849984169,58.6541819980081
226730,-0.34160715341568,58.4738975266973
226840,-0.341399997472763,58.413802702927
226950,-0.340985685586929,58.3536992336635
227060,-0.34077849984169,58.4738975266973
227170,-0.34160715341568,58.413802702927
227270,-0.34077849984169,58.8344751148121
227380,-0.34077849984169,58.8945785840757
227490,-0.340364187955856,58.7743889365352
227600,-0.340157032012939,58.7743889365352
227710,-0.340571343898773,58.7142941127649
227820,-0.340571343898773,58.894587229569
227930,-0.341399997472763,58.5340096414541
228040,-0.340571343898773,58.4739148176838
228150,-0.340985685586929,58.1734320533392
228260,-0.340157032012939,58.113337229569
228370,-0.34160715341568,57.9931475820284
228480,-0.340985685586929,58.113337229569
228590,-0.342021465301514,57.8128631107177
228690,-0.340364187955856,58.053251051292
228800,-0.340985685586929,58.053251051292
228910,-0.34077849984169,58.053251051292
229020,-0.34077849984169,58.1133545205555
229130,-0.339121222496033,58.5941217562109
229240,-0.340985685586929,58.7143114037515
229350,-0.342021465301514,58.5941217562109
229460,-0.340364187955856,58.8345096967853
229570,-0.34077849984169,58.8946131660488
229680,-0.340985685586929,58.8946131660488
229790,-0.339742720127106,59.6758631660488
229900,-0.340571343898773,59.495578694738
230000,-0.342021465301514,58.9547166353123
230110,-0.341399997472763,58.8345269877718
230220,-0.340985685586929,58.5941390471975
230330,-0.341399997472763,58.4739493996569
230440,-0.341399997472763,58.1734666353123
230550,-0.340985685586929,58.1734666353123
230660,-0.340364187955856,58.3537597521164
230770,-0.339949876070023,58.5340442234272
230880,-0.340985685586929,58.5941390471975
230990,-0.341192841529846,59.1350011066231
231100,-0.340985685586929,59.1350011066231
231210,-0.340571343898773,59.0148114590826
231320,-0.340985685586929,58.8345183422785
231420,-0.341192841529846,58.5941304017042
231530,-0.340157032012939,58.8946131660488
231640,-0.34077849984169,58.9547166353123
231750,-0.340571343898773,58.8946218115421
231860,-0.341192841529846,58.6542338709677
231970,-0.340571343898773,58.5941390471975
232080,-0.340157032012939,58.4739493996569
232190,-0.340364187955856,58.5340442234272
232300,-0.340985685586929,58.4739407541637
232410,-0.341814309358597,58.4138459303934
232520,-0.340157032012939,58.4739407541637
232630,-0.340571343898773,58.6542338709677
232730,-0.341399997472763,58.4739407541637
232840,-0.34160715341568,58.0532683422785
232950,-0.34160715341568,57.6926907541637
233060,-0.34160715341568,57.5124062828529
233170,-0.340157032012939,57.8128890471975
233280,-0.341399997472763,57.5725011066231
233390,-0.341192841529846,57.6325959303934
233500,-0.341192841529846,57.3922079898191
233610,-0.340364187955856,57.3922079898191
233720,-0.342228621244431,56.9715355779339
233830,-0.341192841529846,56.9114407541637
233940,-0.34077849984169,56.9114407541637
234050,-0.340571343898773,57.151828694738
234150,-0.341399997472763,57.0917338709677
234260,-0.340364187955856,57.3321218115421
234370,-0.340985685586929,57.151828694738
234480,-0.340571343898773,57.151828694738
234590,-0.340364187955856,57.2720183422785
234700,-0.341192841529846,57.1518200492447
234810,-0.339535564184189,57.5123889918663
234920,-0.340364187955856,57.5724838156366
235030,-0.340364187955856,57.4522941680961
235140,-0.340157032012939,57.6926821086704
235250,-0.34160715341568,57.6325872849001
235360,-0.34077849984169,57.6926907541637
235460,-0.341192841529846,57.6325959303934
235570,-0.340157032012939,57.8128804017042
235680,-0.340985685586929,57.6926821086704
235790,-0.340571343898773,57.6325872849001
235900,-0.34160715341568,57.2720096967853
236010,-0.340571343898773,57.5123976373596
236120,-0.342228621244431,57.0316304017042
236230,-0.34160715341568,56.9715355779339
236340,-0.34077849984169,57.3321131660488
236450,-0.340364187955856,57.5725011066231
236560,-0.340571343898773,57.4523114590826
236670,-0.341399997472763,57.3321218115421
236780,-0.34160715341568,56.9114493996569
236880,-0.340364187955856,57.2119321640015
236990,-0.341399997472763,57.0316390471975
237100,-0.340157032012939,57.2720269877718
237210,-0.34160715341568,57.3321218115421
237320,-0.341192841529846,57.3922166353123
237430,-0.341399997472763,57.2119235185083
237540,-0.340157032012939,57.4523114590826
237650,-0.342021465301514,56.9114493996569
237760,-0.34160715341568,56.7912597521164
237870,-0.339535564184189,57.5124062828529
237980,-0.339742720127106,57.8729838709677
238090,-0.341192841529846,57.5725011066231
238190,-0.340157032012939,57.7527855779339
238300,-0.339949876070023,57.9330700492447
238410,-0.339949876070023,58.4739321086704
238520,-0.340985685586929,58.5941217562109
238630,-0.341399997472763,58.834501051292
238740,-0.341814309358597,58.5340182869474
238850,-0.34160715341568,58.1734406988325
238960,-0.341399997472763,57.6325786394069
239070,-0.340571343898773,57.8128717562109
239180,-0.341192841529846,57.8128717562109
239290,-0.340571343898773,57.9330700492447
239400,-0.341399997472763,57.6926821086704
239510,-0.340985685586929,58.1734493443258
239610,-0.340571343898773,57.993164873015
239720,-0.34160715341568,57.7527769324407
239830,-0.34160715341568,57.211914873015
239940,-0.34160715341568,56.9114321086704
240050,-0.341192841529846,56.9114321086704
240160,-0.340157032012939,57.1518200492447
240270,-0.340364187955856,57.3321131660488
240380,-0.341399997472763,56.9715355779339
240490,-0.340364187955856,57.0316304017042
240600,-0.340985685586929,56.9715269324407
240710,-0.34160715341568,56.9715269324407
240820,-0.340985685586929,57.0917165799812
240920,-0.341399997472763,56.9715269324407
241030,-0.340985685586929,56.9114234631771
241140,-0.341192841529846,57.0316131107177
241250,-0.341192841529846,56.9114148176838
241360,-0.341192841529846,56.79121652465
241470,-0.34160715341568,56.4306389365352
241580,-0.340571343898773,56.3104492889946
241690,-0.339949876070023,56.4907337603054
241800,-0.341192841529846,56.3104406435014
241910,-0.341192841529846,56.3705354672716
242020,-0.339949876070023,56.5508199385824
242130,-0.339535564184189,56.9714923504675
242240,-0.340364187955856,56.9113975266973
242340,-0.341192841529846,57.0315871742378
242450,-0.342021465301514,56.7311130553865
242560,-0.340571343898773,57.1517854672716
242670,-0.340985685586929,56.9714923504675
242780,-0.340571343898773,57.0916906435014
242890,-0.340157032012939,57.2719751148121
243000,-0.34077849984169,57.2719751148121
243110,-0.340571343898773,56.851302702927
243220,-0.340157032012939,57.0916906435014
243330,-0.341192841529846,57.3320699385824
243440,-0.340571343898773,57.2719751148121
243550,-0.341192841529846,57.1517768217783
243650,-0.34077849984169,57.2118802910419
243760,-0.342021465301514,56.5508285840757
243870,-0.340985685586929,56.4306302910419
243980,-0.341399997472763,56.6109147623527
244090,-0.340985685586929,56.7311044098932
244200,-0.341192841529846,56.6710095861229
244310,-0.340157032012939,57.0315871742378
244420,-0.340985685586929,57.1517768217783
244530,-0.340985685586929,57.1517768217783
244640,-0.340571343898773,57.0916819980081
244750,-0.339742720127106,57.1517768217783
244860,-0.34077849984169,57.2118802910419
244970,-0.340985685586929,57.2719751148121
245070,-0.34077849984169,57.3320785840757
245180,-0.340985685586929,57.2118802910419
245290,-0.340985685586929,57.2118802910419
245400,-0.340985685586929,57.2719751148121
245510,-0.341399997472763,56.9113975266973
245620,-0.340985685586929,56.8512940574337
245730,-0.340571343898773,56.8512940574337
245840,-0.340985685586929,56.911388881204
245950,-0.341192841529846,56.7310957643999
246060,-0.340157032012939,56.7310957643999
246170,-0.341399997472763,56.4306130000553
246280,-0.340157032012939,56.6710009406297
246380,-0.342021465301514,56.6109061168594
246490,-0.340364187955856,56.5508112930891
246600,-0.34160715341568,56.2503285287445
246710,-0.34160715341568,56.1902337049743
246820,-0.341399997472763,56.2503285287445
246930,-0.341399997472763,56.3104233525148
247040,-0.341192841529846,56.4306130000553
247150,-0.34077849984169,56.2503285287445
247260,-0.34077849984169,56.4306216455486
247370,-0.34077849984169,56.5508199385824
247480,-0.340571343898773,56.7311130553865
247590,-0.340985685586929,56.5508199385824
247700,-0.340571343898773,57.0315871742378
247800,-0.340985685586929,57.0916819980081
247910,-0.340571343898773,57.1517768217783
248020,-0.340571343898773,57.1517768217783
248130,-0.340364187955856,57.4522595861229
248240,-0.340157032012939,57.5123544098932
248350,-0.341399997472763,57.3921647623527
248460,-0.34160715341568,57.0916819980081
248570,-0.34077849984169,56.9714923504675
248680,-0.34243580698967,56.6109147623527
248790,-0.34160715341568,56.0099578791568
248900,-0.34077849984169,55.8897682316162
249010,-0.340364187955856,55.8897682316162
249110,-0.34077849984169,55.7094837603054
249220,-0.342021465301514,55.5892941127649
249330,-0.339742720127106,55.8897682316162
249440,-0.340157032012939,56.1902509959608
249550,-0.339535564184189,56.3705354672716
249660,-0.341192841529846,56.3104406435014
249770,-0.340985685586929,56.1902423504675
249880,-0.340571343898773,56.4907251148121
249990,-0.340364187955856,56.5508199385824
250100,-0.339949876070023,57.2118716455486
250210,-0.341399997472763,57.2719664693189
250320,-0.341192841529846,57.1517681762851
250430,-0.340364187955856,57.1517681762851
250530,-0.339742720127106,57.3921474713661
250640,-0.341192841529846,57.4522422951364
250750,-0.34077849984169,57.6926302357107
250860,-0.341814309358597,57.2719578238256
250970,-0.34077849984169,57.4522509406297
251080,-0.340985685586929,57.2118630000553
251190,-0.34077849984169,57.4522509406297
251300,-0.340364187955856,57.692638881204
251410,-0.340985685586929,57.8128285287445
251520,-0.34160715341568,57.3921561168594
251630,-0.340985685586929,57.6926302357107
251740,-0.339742720127106,58.2334922951364
251840,-0.34077849984169,57.8729233525148
251950,-0.340571343898773,57.6325440574337
252060,-0.34160715341568,57.5123544098932
252170,-0.340985685586929,57.2719664693189
252280,-0.340985685586929,56.9714837049743
252390,-0.339949876070023,56.9714837049743
252500,-0.341192841529846,56.911388881204
252610,-0.341399997472763,56.911388881204
252720,-0.340571343898773,57.2719664693189
252830,-0.340985685586929,57.4522509406297
252940,-0.341399997472763,57.4522509406297
253050,-0.341814309358597,57.0916733525148
253160,-0.342021465301514,56.8512940574337
253260,-0.342021465301514,56.4306216455486
253370,-0.340364187955856,56.7311044098932
253480,-0.342021465301514,56.4306302910419
253590,-0.340157032012939,56.5508199385824
253700,-0.340571343898773,56.851302702927
253810,-0.34160715341568,56.851302702927
253920,-0.34077849984169,57.0916906435014
254030,-0.341399997472763,57.0315958197311
254140,-0.339949876070023,57.0916906435014
254250,-0.341192841529846,56.851302702927
254360,-0.341192841529846,56.9113975266973
254470,-0.339949876070023,57.0315871742378
254570,-0.342021465301514,56.7311130553865
254680,-0.341399997472763,56.7912078791568
254790,-0.34160715341568,56.610923407846
254900,-0.340985685586929,56.7311130553865
255010,-0.34077849984169,56.79121652465
255120,-0.341192841529846,56.79121652465
255230,-0.340364187955856,57.0316044652244
255340,-0.340364187955856,57.2719924057987
255450,-0.340985685586929,57.4522768771095
255560,-0.34160715341568,57.1517941127649
255670,-0.34160715341568,56.6710268771095
255780,-0.342021465301514,56.4306475820284
255890,-0.341192841529846,56.4306475820284
255990,-0.34077849984169,56.1902682869474
256100,-0.340985685586929,55.7695958750623
256210,-0.34077849984169,55.6494062275217
256320,-0.34077849984169,55.7696045205555
256430,-0.340571343898773,56.1902769324407
256540,-0.340985685586929,56.0700786394069
256650,-0.341814309358597,55.8296993443258
256760,-0.341192841529846,55.6494062275217
256870,-0.340571343898773,55.5292165799812
256980,-0.341192841529846,55.4090182869474
257090,-0.340985685586929,55.2888199939136
257200,-0.340985685586929,55.0484320533392
257300,-0.341192841529846,55.0484320533392
257410,-0.340571343898773,55.0484320533392
257520,-0.340985685586929,55.1085268771095
257630,-0.34077849984169,55.1085268771095
257740,-0.341192841529846,55.3489061721906
257850,-0.340985685586929,55.3489061721906
257960,-0.341192841529846,55.4090009959608
258070,-0.341192841529846,55.3489061721906
258180,-0.340571343898773,55.5291992889946
258290,-0.342021465301514,54.988337229569
258400,-0.341192841529846,54.9282424057987
258510,-0.340571343898773,55.0484406988325
258620,-0.34077849984169,54.9883458750623
258720,-0.340364187955856,54.8080614037515
258830,-0.340364187955856,54.928251051292
258940,-0.341192841529846,54.8681562275217
259050,-0.34160715341568,54.6277682869474
259160,-0.340985685586929,54.6277682869474
259270,-0.340571343898773,54.7479665799812
259380,-0.340571343898773,54.868164873015
259490,-0.340985685586929,54.9883545205555
259600,-0.340364187955856,55.1686476373596
259710,-0.34077849984169,55.1085528135893
259820,-0.340157032012939,55.3489407541637
259930,-0.34160715341568,55.2287511066231
260030,-0.340571343898773,55.1085614590826
260140,-0.340985685586929,55.2287511066231
260250,-0.34160715341568,54.808078694738
260360,-0.341399997472763,54.9883631660488
260470,-0.340364187955856,54.9883631660488
260580,-0.341399997472763,55.0484579898191
260690,-0.340157032012939,55.4691304017042
260800,-0.341399997472763,55.4691304017042
260910,-0.341192841529846,55.5292252254745
261020,-0.341814309358597,55.3489407541637
261130,-0.340364187955856,55.4691304017042
261240,-0.339742720127106,55.7696045205555
261350,-0.341399997472763,55.5893114037515
261450,-0.341192841529846,55.4090182869474
261560,-0.340985685586929,55.4090182869474
261670,-0.341814309358597,55.0484406988325
261780,-0.34077849984169,55.1085441680961
261890,-0.341192841529846,54.928251051292
262000,-0.340985685586929,54.8080527582582
262110,-0.340985685586929,54.6277596414541
262220,-0.340985685586929,54.3873717008798
262330,-0.341192841529846,54.44746652465
262440,-0.341192841529846,54.5676561721906
262550,-0.34160715341568,54.3272682316162
262660,-0.340364187955856,54.9282337603054
262760,-0.340157032012939,55.3489061721906
262870,-0.340571343898773,55.4090009959608
262980,-0.34160715341568,55.048423407846
263090,-0.341814309358597,54.7479406435014
263200,-0.341192841529846,54.9883199385824
263310,-0.341399997472763,54.507552702927
263420,-0.340364187955856,54.4474578791568
263530,-0.341192841529846,53.9666906435014
263640,-0.340571343898773,54.1469837603054
263750,-0.341814309358597,53.9066044652244
263860,-0.34160715341568,53.6061217008798
263970,-0.341399997472763,53.3056389365352
264080,-0.34160715341568,52.8248717008798
264180,-0.34160715341568,52.7647768771095
264290,-0.340364187955856,53.0051648176838
264400,-0.341399997472763,52.7046820533392
264510,-0.340985685586929,52.3441044652244
264620,-0.340985685586929,52.4041992889946
264730,-0.342228621244431,51.9835268771095
264840,-0.340364187955856,52.4041992889946
264950,-0.340985685586929,52.3440958197311
265060,-0.340985685586929,52.3440958197311
265170,-0.339949876070023,52.5844751148121
265280,-0.339949876070023,52.7046647623527
265390,-0.340985685586929,52.7046647623527
265490,-0.340985685586929,52.8849492336635
265600,-0.341814309358597,52.6445699385824
265710,-0.34077849984169,52.3440958197311
265820,-0.339949876070023,52.5844751148121
265930,-0.341192841529846,52.4041819980081
266040,-0.340157032012939,52.8248544098932
266150,-0.341192841529846,52.7647595861229
266260,-0.34077849984169,52.8248630553865
266370,-0.34077849984169,52.5844837603054
266480,-0.340571343898773,52.7647768771095
266590,-0.340364187955856,53.0652596414541
266700,-0.340571343898773,53.0652596414541
266810,-0.340364187955856,53.2455527582582
266910,-0.340364187955856,53.5460355226028
267020,-0.341192841529846,53.7263199939136
267130,-0.341814309358597,53.7864148176838
267240,-0.340571343898773,54.207087229569
267350,-0.341399997472763,53.9066044652244
267460,-0.340364187955856,54.3873717008798
267570,-0.340571343898773,54.2671820533392
267680,-0.340157032012939,54.3873717008798
267790,-0.339949876070023,54.8681389365352
267900,-0.341814309358597,54.5676561721906
268010,-0.34160715341568,54.5075613484203
268120,-0.340985685586929,54.2070785840757
268220,-0.340985685586929,54.267173407846
268330,-0.340157032012939,54.5676561721906
268440,-0.340985685586929,54.267173407846
268550,-0.341399997472763,54.4474578791568
268660,-0.340571343898773,54.6878458197311
268770,-0.34160715341568,54.6878458197311
268880,-0.340985685586929,54.6878458197311
268990,-0.341192841529846,54.5676475266973
269100,-0.340157032012939,54.8681302910419
269210,-0.34160715341568,54.507552702927
269320,-0.341192841529846,54.2671647623527
269430,-0.34077849984169,54.3272682316162
269540,-0.340985685586929,54.507552702927
269640,-0.341192841529846,54.6277423504675
269750,-0.340985685586929,54.9282164693189
269860,-0.340985685586929,54.9883112930891
269970,-0.341399997472763,54.8080181762851
270080,-0.34077849984169,54.8681216455486
270190,-0.341814309358597,54.567638881204
270300,-0.340985685586929,54.5075354119405
270410,-0.34077849984169,54.4474405881702
270520,-0.341192841529846,54.3873457643999
270630,-0.340364187955856,54.8080181762851
270740,-0.34077849984169,54.9282164693189
270850,-0.340571343898773,54.9282164693189
270950,-0.340571343898773,55.1085095861229
271060,-0.34077849984169,55.1686130553865
271170,-0.34160715341568,54.9883285840757
271280,-0.34160715341568,54.8681389365352
271390,-0.34077849984169,54.8080441127649
271500,-0.340985685586929,54.8080441127649
271610,-0.34077849984169,54.8080441127649
271720,-0.340985685586929,54.8681389365352
271830,-0.341192841529846,54.8080441127649
271940,-0.340157032012939,55.1085268771095
272050,-0.341399997472763,55.0484320533392
272160,-0.341399997472763,54.8080441127649
272270,-0.340364187955856,55.2888113484203
272370,-0.340571343898773,55.4691044652244
272480,-0.341399997472763,55.22871652465
272590,-0.340157032012939,55.4090009959608
272700,-0.34160715341568,55.048423407846
272810,-0.340985685586929,54.8681302910419
272920,-0.340985685586929,54.9282251148121
273030,-0.340571343898773,55.2287078791568
273140,-0.340985685586929,55.2287078791568
273250,-0.340985685586929,55.1085095861229
273360,-0.341399997472763,54.8681216455486
273470,-0.341192841529846,54.8080268217783
273580,-0.340571343898773,54.7479319980081
273680,-0.341192841529846,54.6277337049743
273790,-0.341399997472763,54.2671561168594
273900,-0.341814309358597,54.2070612930891
274010,-0.340985685586929,54.0868630000553
274120,-0.340985685586929,54.0868630000553
274230,-0.34077849984169,54.3272509406297
274340,-0.34077849984169,54.5075440574337
274450,-0.34077849984169,54.3873544098932
274560,-0.340571343898773,54.6277423504675
274670,-0.340364187955856,54.5676475266973
274780,-0.340985685586929,54.6878371742378
274890,-0.34077849984169,54.8080354672716
275000,-0.341399997472763,54.9282251148121
275100,-0.341399997472763,54.6277423504675
275210,-0.340364187955856,54.4474578791568
275320,-0.341399997472763,54.4474578791568
275430,-0.341399997472763,54.3873630553865
275540,-0.340985685586929,54.3873630553865
275650,-0.341399997472763,54.507552702927
275760,-0.340364187955856,54.6277423504675
275870,-0.341399997472763,54.5676475266973
275980,-0.34077849984169,54.6277509959608
276090,-0.340571343898773,54.7479492889946
276200,-0.340364187955856,54.9282424057987
276310,-0.340157032012939,55.2287251701433
276410,-0.340571343898773,55.4090182869474
276520,-0.340985685586929,55.5893027582582
276630,-0.34077849984169,55.4691131107177
276740,-0.34077849984169,55.2888286394069
276850,-0.340571343898773,55.2888286394069
276960,-0.340571343898773,55.5893114037515
277070,-0.339949876070023,56.1301734631771
277180,-0.341192841529846,56.1301734631771
277290,-0.34077849984169,56.3104665799812
277400,-0.340985685586929,56.1301734631771
277510,-0.341399997472763,56.0700786394069
277620,-0.341192841529846,55.8897855226028
277730,-0.342228621244431,55.7695958750623
277830,-0.340157032012939,56.1902682869474
277940,-0.340571343898773,56.4306562275217
278050,-0.341814309358597,56.3705614037515
278160,-0.341192841529846,56.490751051292
278270,-0.342021465301514,56.0099838156366
278380,-0.340157032012939,56.3705614037515
278490,-0.340571343898773,56.4907596967853
278600,-0.339949876070023,56.7912424611299
278710,-0.339535564184189,57.5724838156366
278820,-0.341399997472763,57.272001051292
278930,-0.340157032012939,57.5123889918663
279040,-0.341399997472763,57.3921993443258
279140,-0.341399997472763,56.9715269324407
279250,-0.34077849984169,56.7311476373596
279360,-0.340985685586929,56.7311476373596
279470,-0.340157032012939,56.9715355779339
279580,-0.341192841529846,57.1518200492447
279690,-0.34077849984169,57.1518200492447
279800,-0.341192841529846,56.7912424611299
279910,-0.341192841529846,56.7912424611299
280020,-0.34160715341568,56.3705700492447
280130,-0.340364187955856,56.6109579898191
280240,-0.341192841529846,56.4907596967853
280350,-0.341814309358597,56.1902769324407
280460,-0.340985685586929,56.0700786394069
280560,-0.340985685586929,55.8897855226028
280670,-0.340985685586929,55.769587229569
280780,-0.340157032012939,55.8296820533392
280890,-0.340985685586929,55.6493889365352
281000,-0.342021465301514,55.4090096414541
281110,-0.34160715341568,55.4691044652244
281220,-0.340364187955856,55.5291992889946
281330,-0.340985685586929,55.6493889365352
281440,-0.340157032012939,55.7094837603054
281550,-0.341192841529846,55.5291906435014
281660,-0.340571343898773,55.4090009959608
281770,-0.34160715341568,54.9282337603054
281870,-0.34077849984169,55.22871652465
281980,-0.341814309358597,55.1686217008798
282090,-0.340571343898773,55.2888199939136
282200,-0.34077849984169,55.3489234631771
282310,-0.340571343898773,55.2287338156366
282420,-0.340985685586929,55.2287338156366
282530,-0.342021465301514,55.0484493443258
282640,-0.340364187955856,55.1085441680961
282750,-0.341399997472763,55.1686389918663
282860,-0.34077849984169,55.2287424611299
282970,-0.340985685586929,55.2888372849001
283080,-0.340157032012939,55.2888372849001
283190,-0.340985685586929,55.4691217562109
283290,-0.341814309358597,55.2888372849001
283400,-0.340571343898773,55.3489321086704
283510,-0.340985685586929,55.3489321086704
283620,-0.34160715341568,55.2287424611299
283730,-0.340571343898773,55.3489407541637
283840,-0.340157032012939,55.589328694738
283950,-0.341192841529846,55.6494235185083
284060,-0.341399997472763,55.4691304017042
284170,-0.340985685586929,55.7095096967853
284280,-0.34160715341568,55.5292252254745
284390,-0.340157032012939,55.7095096967853
284500,-0.34077849984169,55.8297079898191
284600,-0.340985685586929,55.649414873015
284710,-0.340364187955856,55.7696045205555
284820,-0.340157032012939,55.8897941680961
284930,-0.341399997472763,55.6494062275217
285040,-0.340364187955856,55.7695958750623
285150,-0.341399997472763,55.8296906988325
285260,-0.340985685586929,56.0099751701433
285370,-0.340571343898773,56.0700699939136
285480,-0.34077849984169,56.1301734631771
285590,-0.340571343898773,56.1902682869474
285700,-0.341192841529846,56.1301734631771
285810,-0.341399997472763,56.0700786394069
285920,-0.34077849984169,55.8897941680961
286020,-0.342021465301514,55.7095096967853
286130,-0.341192841529846,55.7696045205555
286240,-0.34077849984169,55.649414873015
286350,-0.342021465301514,55.2287424611299
286460,-0.341192841529846,55.2888372849001
286570,-0.341399997472763,54.9282596967853
286680,-0.341192841529846,55.0484493443258
286790,-0.340985685586929,55.0484493443258
286900,-0.340985685586929,55.0484493443258
287010,-0.34160715341568,54.7479665799812
287120,-0.341192841529846,54.6878717562109
287230,-0.34160715341568,54.5075872849001
287330,-0.341399997472763,54.5075872849001
287440,-0.339535564184189,54.9883545205555
287550,-0.340571343898773,54.9883545205555
287660,-0.340985685586929,55.0484493443258
287770,-0.340571343898773,55.2888372849001
287880,-0.34243580698967,55.1085441680961
287990,-0.340364187955856,55.2888372849001
288100,-0.341399997472763,55.1686476373596
288210,-0.341192841529846,55.0484493443258
288320,-0.34077849984169,55.0484493443258
288430,-0.341192841529846,54.928251051292
288540,-0.339949876070023,55.1085355226028
288650,-0.341399997472763,54.8080527582582
288750,-0.340571343898773,54.928251051292
288860,-0.34160715341568,54.6878631107177
288970,-0.34243580698967,54.387380346373
289080,-0.340985685586929,54.5075699939136
289190,-0.341192841529846,54.2671820533392
289300,-0.340985685586929,54.3873717008798
289410,-0.340985685586929,54.5075613484203
289520,-0.341399997472763,54.3873717008798
289630,-0.34160715341568,54.3272768771095
289740,-0.340364187955856,54.3272768771095
289850,-0.341399997472763,54.3272768771095
289960,-0.341192841529846,54.2070785840757
290060,-0.34077849984169,54.1469837603054
290170,-0.341399997472763,53.8465009959608
290280,-0.340571343898773,53.7263113484203
290390,-0.34160715341568,53.4258285840757
290500,-0.341399997472763,53.3056389365352
290610,-0.34077849984169,53.3056389365352
290720,-0.341192841529846,53.1854406435014
290830,-0.34160715341568,52.8849578791568
290940,-0.341814309358597,52.5243802910419
291050,-0.341192841529846,52.163802702927
291160,-0.340157032012939,52.4642854672716
291270,-0.340571343898773,52.5243802910419
291380,-0.340571343898773,52.6445785840757
291480,-0.341192841529846,52.704673407846
291590,-0.342228621244431,52.4041992889946
291700,-0.340985685586929,52.7647682316162
291810,-0.340364187955856,52.704673407846
291920,-0.340985685586929,52.5844751148121
292030,-0.341399997472763,52.7046647623527
292140,-0.340571343898773,52.8849578791568
292250,-0.34160715341568,53.0051475266973
292360,-0.34160715341568,52.5844751148121
292470,-0.340364187955856,52.6445699385824
292580,-0.341192841529846,52.2839923504675
292690,-0.34077849984169,51.923423407846
292800,-0.340571343898773,52.1638113484203
292900,-0.342021465301514,51.6229492889946
293010,-0.340571343898773,51.863337229569
293120,-0.34160715341568,51.8032424057987
293230,-0.341814309358597,51.5027596414541
293340,-0.340571343898773,51.6229579344879
293450,-0.340985685586929,51.3825699939136
293570,-0.340571343898773,51.5628631107177
293670,-0.34077849984169,51.5628631107177
293780,-0.341192841529846,51.5628631107177
293890,-0.340157032012939,51.8633458750623
294000,-0.340985685586929,52.043630346373
294110,-0.34077849984169,51.9234406988325
294210,-0.340157032012939,52.2239234631771
294320,-0.341814309358597,52.2239234631771
294430,-0.34160715341568,52.0436389918663
294540,-0.340985685586929,52.0436389918663
294650,-0.340571343898773,52.1638372849001
294760,-0.341399997472763,51.8032596967853
294870,-0.340985685586929,51.8032596967853
294980,-0.341399997472763,51.9835441680961
295090,-0.34160715341568,51.9835441680961
295200,-0.341192841529846,51.7431562275217
295310,-0.342021465301514,51.4426821086704
295420,-0.341399997472763,51.0821045205555
295530,-0.340985685586929,51.1421993443258
295630,-0.341814309358597,50.7816217562109
295740,-0.340571343898773,51.0821045205555
295850,-0.340571343898773,51.1421993443258
295960,-0.341192841529846,51.3224838156366
296070,-0.341399997472763,51.0820958750623
296180,-0.340364187955856,51.2022855226028
296290,-0.341399997472763,50.9618975820284
296400,-0.341399997472763,50.8417079344879
296510,-0.341192841529846,51.082087229569
296620,-0.340571343898773,51.0219924057987
296730,-0.340985685586929,51.1421820533392
296840,-0.34160715341568,50.9017941127649
296940,-0.340157032012939,51.1421820533392
297050,-0.34077849984169,50.9618975820284
297160,-0.340985685586929,50.9618975820284
297270,-0.341399997472763,51.082087229569
297380,-0.34077849984169,51.0219924057987
297490,-0.341814309358597,50.7816131107177
297600,-0.340364187955856,51.1421906988325
297710,-0.341814309358597,50.7816131107177
297820,-0.34077849984169,50.6013286394069
297930,-0.341814309358597,50.4210441680961
298040,-0.34160715341568,50.3609493443258
298150,-0.341814309358597,50.1205700492447
298260,-0.340571343898773,50.4210528135893
298360,-0.34160715341568,50.0003804017042
298470,-0.340157032012939,50.180664873015
298580,-0.340985685586929,50.180664873015
298690,-0.340364187955856,50.180664873015
298800,-0.341814309358597,49.6998976373596
298910,-0.341192841529846,49.7599924611299
299020,-0.341399997472763,49.4595096967853
299130,-0.340157032012939,49.8200872849001
299240,-0.34077849984169,49.8801907541637
299350,-0.340571343898773,49.8801907541637
299460,-0.341814309358597,49.5797079898191
299570,-0.340571343898773,49.5797079898191
299670,-0.340985685586929,49.6398028135893
299780,-0.340571343898773,49.8801907541637
299890,-0.340985685586929,49.8200872849001
300000,-0.341192841529846,50.0604665799812
300110,-0.341399997472763,50.0003717562109
300220,-0.341192841529846,49.8801734631771
300330,-0.340985685586929,50.1806475820284
300440,-0.341814309358597,50.0003631107177
300550,-0.340985685586929,50.1205527582582
300660,-0.339742720127106,50.5412251701433
300770,-0.340985685586929,50.5412251701433
300880,-0.340985685586929,50.5412251701433
300990,-0.34077849984169,50.7816131107177
301090,-0.341192841529846,50.7816131107177
301200,-0.341192841529846,50.9018027582582
301310,-0.341192841529846,50.9618975820284
301420,-0.341399997472763,50.4210355226028
301530,-0.340985685586929,50.300837229569
301640,-0.340157032012939,50.5412251701433
301750,-0.340985685586929,50.4210268771095
301860,-0.341192841529846,50.7816044652244
301970,-0.340985685586929,50.6013113484203
302080,-0.341192841529846,50.6614061721906
302190,-0.341399997472763,50.6013113484203
302300,-0.340364187955856,50.7215009959608
302400,-0.342228621244431,50.4210268771095
302510,-0.341399997472763,50.0003544652244
302620,-0.342021465301514,49.8200699939136
302730,-0.340157032012939,49.9402596414541
302840,-0.340985685586929,50.1205441127649
302950,-0.34077849984169,50.6013199939136
303060,-0.340571343898773,50.7215182869474
303170,-0.341814309358597,50.5412338156366
303280,-0.340985685586929,50.5412338156366
303390,-0.340364187955856,50.7215269324407
303500,-0.340157032012939,51.0821045205555
303610,-0.339742720127106,51.6229665799812
303720,-0.34077849984169,51.5027769324407
303820,-0.340364187955856,51.8032596967853
303930,-0.340364187955856,52.0436476373596
304040,-0.34160715341568,51.8032596967853
304150,-0.342642962932587,51.4426821086704
304260,-0.340571343898773,51.4426821086704
304370,-0.340571343898773,51.743164873015
304480,-0.340985685586929,51.8633545205555
304590,-0.340571343898773,51.9234493443258
304700,-0.340157032012939,52.2239321086704
304810,-0.340571343898773,52.524414873015
304920,-0.341192841529846,52.7046993443258
305030,-0.340364187955856,52.9450872849001
305130,-0.340571343898773,52.8248976373596
305240,-0.34243580698967,52.2840269324407
305350,-0.34077849984169,52.2239321086704
305460,-0.34077849984169,52.3441304017042
305570,-0.341192841529846,52.6446045205555
305680,-0.341399997472763,52.524414873015
305790,-0.341399997472763,52.2239321086704
305900,-0.340571343898773,52.3441304017042
306010,-0.341399997472763,52.3441304017042
306120,-0.34160715341568,52.0436476373596
306230,-0.340985685586929,52.2239321086704
306340,-0.34077849984169,52.4643200492447
306450,-0.340985685586929,52.2840269324407
306550,-0.34160715341568,52.1638372849001
306660,-0.340364187955856,52.2840269324407
306770,-0.341399997472763,52.0436389918663
306880,-0.340157032012939,52.584501051292
306990,-0.340571343898773,52.584501051292
307100,-0.341192841529846,52.7046906988325
307210,-0.340571343898773,53.0652682869474
307320,-0.34243580698967,52.5243975820284
307430,-0.340985685586929,52.5243975820284
307540,-0.341399997472763,52.2840096414541
307650,-0.340985685586929,52.2239061721906
307760,-0.341192841529846,52.2239061721906
307860,-0.340571343898773,52.10371652465
307970,-0.341192841529846,52.0436217008798
308080,-0.340364187955856,52.1638113484203
308190,-0.341814309358597,51.6830441127649
308300,-0.341192841529846,51.8633285840757
308410,-0.341192841529846,51.9835182316162
308520,-0.34077849984169,52.0436217008798
308630,-0.341192841529846,51.8633285840757
308740,-0.341192841529846,51.923423407846
308850,-0.341399997472763,51.8032337603054
308960,-0.341192841529846,51.8633285840757
309070,-0.341399997472763,51.923423407846
309180,-0.340571343898773,52.10371652465
309280,-0.340571343898773,52.5243889365352
309390,-0.340985685586929,52.6445785840757
309500,-0.340571343898773,52.7647768771095
309610,-0.340985685586929,53.0051561721906
309720,-0.34077849984169,52.9450613484203
309830,-0.341399997472763,52.704673407846
309940,-0.340157032012939,53.0051561721906
310050,-0.340157032012939,53.3657337603054
310160,-0.34077849984169,53.2455441127649
310270,-0.34077849984169,53.425837229569
310380,-0.340571343898773,53.6662251701433
310490,-0.339949876070023,54.0268027582582
310590,-0.341814309358597,53.6662251701433
310700,-0.341192841529846,53.606130346373
310810,-0.341399997472763,53.6662251701433
310920,-0.34077849984169,53.4859406988325
311030,-0.340985685586929,53.425837229569
311140,-0.339949876070023,53.7263199939136
311250,-0.340571343898773,53.9667079344879
311360,-0.340157032012939,54.1469924057987
311470,-0.341814309358597,54.1469924057987
311580,-0.34077849984169,54.0268027582582
311690,-0.34160715341568,54.0868975820284
311800,-0.341399997472763,53.9066044652244
311910,-0.34077849984169,54.207087229569
312010,-0.34077849984169,54.4474751701433
312120,-0.340157032012939,54.9282424057987
312230,-0.339742720127106,55.1686217008798
312340,-0.339949876070023,55.6493889365352
312450,-0.340985685586929,55.4090009959608
312560,-0.341399997472763,55.2888113484203
312670,-0.33932837843895,55.5892941127649
312780,-0.342021465301514,55.5291992889946
312890,-0.341399997472763,55.4691044652244
313000,-0.340571343898773,55.7094924057987
313110,-0.34077849984169,55.5292079344879
313220,-0.341399997472763,55.3489148176838
313320,-0.34077849984169,55.2888199939136
313430,-0.341399997472763,55.4090096414541
313540,-0.341399997472763,55.1686217008798
313650,-0.341192841529846,55.1085268771095
313760,-0.340985685586929,54.9883285840757
313870,-0.340985685586929,54.9883285840757
313980,-0.340985685586929,55.048423407846
314090,-0.339949876070023,55.4690958197311
314200,-0.34077849984169,55.5892941127649
314310,-0.34077849984169,55.6493975820284
314420,-0.341192841529846,55.8296820533392
314530,-0.340364187955856,56.0099751701433
314640,-0.34077849984169,55.709501051292
314740,-0.341192841529846,55.6494062275217
314850,-0.342228621244431,55.2888372849001
314960,-0.339949876070023,55.5292165799812
315070,-0.340157032012939,55.8296993443258
315180,-0.340157032012939,56.1301821086704
315290,-0.342228621244431,55.8297079898191
315400,-0.340364187955856,56.1301907541637
315510,-0.340571343898773,56.2503890471975
315620,-0.341399997472763,55.8898114590826
315730,-0.340157032012939,56.1301993996569
315840,-0.341399997472763,56.0701045758867
315950,-0.340985685586929,56.0701045758867
316050,-0.341399997472763,56.0100097521164
316160,-0.340985685586929,56.1301993996569
316270,-0.340364187955856,56.1301993996569
316380,-0.341192841529846,56.4306735185083
316490,-0.340364187955856,56.7311562828529
316600,-0.340985685586929,57.0316304017042
316710,-0.339949876070023,57.0917252254745
316820,-0.34160715341568,56.9114407541637
316930,-0.340571343898773,56.9715355779339
317040,-0.34077849984169,56.9114407541637
317150,-0.341192841529846,57.0917252254745
317260,-0.340364187955856,57.2720183422785
317370,-0.34160715341568,56.9114407541637
317470,-0.341399997472763,56.5508631660488
317580,-0.341399997472763,56.0700959303934
317690,-0.340157032012939,56.2503804017042
317800,-0.340157032012939,56.3104752254745
317910,-0.34160715341568,55.9498976373596
318020,-0.341192841529846,56.0700872849001
318130,-0.341192841529846,56.4907596967853
318240,-0.340985685586929,56.3705614037515
318350,-0.34160715341568,56.0700786394069
318460,-0.340157032012939,56.3104665799812
318570,-0.340571343898773,56.3104665799812
318680,-0.340985685586929,56.0700786394069
318780,-0.341814309358597,55.709501051292
318890,-0.341192841529846,55.709501051292
319000,-0.342228621244431,55.1686389918663
319110,-0.341399997472763,54.928251051292
319220,-0.341192841529846,55.2888286394069
319330,-0.341814309358597,54.9883458750623
319440,-0.340985685586929,54.9282424057987
319550,-0.341399997472763,54.8681475820284
319660,-0.342228621244431,54.6277682869474
319770,-0.340985685586929,54.7479579344879
319880,-0.341192841529846,54.5676648176838
319990,-0.340571343898773,54.8080527582582
320100,-0.341192841529846,54.9282424057987
320200,-0.339949876070023,55.2287251701433
320310,-0.340571343898773,55.2888199939136
320420,-0.34077849984169,55.3489234631771
320530,-0.341814309358597,55.2888286394069
320640,-0.340985685586929,55.1085355226028
320750,-0.341814309358597,54.9883458750623
320860,-0.340985685586929,54.7479579344879
320970,-0.340157032012939,54.8681475820284
321080,-0.341192841529846,54.8681475820284
321190,-0.340985685586929,54.7479492889946
321300,-0.340364187955856,55.3489148176838
321410,-0.341814309358597,55.1085355226028
321510,-0.339742720127106,55.5893027582582
321620,-0.340364187955856,55.7695958750623
321730,-0.341192841529846,55.7695958750623
321840,-0.34160715341568,55.4691131107177
321950,-0.34077849984169,55.5893114037515
322060,-0.34160715341568,55.2287338156366
322170,-0.341399997472763,55.3489234631771
322280,-0.341399997472763,55.2888286394069
322390,-0.340571343898773,55.4691217562109
322500,-0.342021465301514,55.1085441680961
322610,-0.340364187955856,55.3489321086704
322720,-0.340985685586929,55.4090269324407
322830,-0.34077849984169,55.5893200492447
322930,-0.341399997472763,55.5292252254745
323040,-0.341399997472763,55.5292252254745
323150,-0.340571343898773,55.5292252254745
323260,-0.342021465301514,55.1085528135893
323370,-0.34077849984169,55.1686562828529
323480,-0.34160715341568,54.8681735185083
323590,-0.34077849984169,54.9282769877718
323700,-0.340571343898773,54.9883718115421
323810,-0.341814309358597,54.8681821640015
323920,-0.34160715341568,54.4475097521164
324030,-0.341192841529846,54.1470269877718
324140,-0.341399997472763,53.9667338709677
324240,-0.341814309358597,53.6662511066231
324350,-0.341192841529846,53.4859579898191
324460,-0.341192841529846,53.1253804017042
324570,-0.340157032012939,53.6061476373596
324680,-0.342021465301514,53.3657683422785
324790,-0.34077849984169,53.5460614590826
324900,-0.342228621244431,53.1253890471975
325010,-0.34077849984169,53.185492516461
325120,-0.341192841529846,52.8249149283462
325230,-0.341192841529846,52.6446218115421
325340,-0.340364187955856,52.5845269877718
325450,-0.340571343898773,52.9451045758867
325560,-0.341399997472763,52.7648114590826
325660,-0.341192841529846,52.8850011066231
325770,-0.34160715341568,52.8249062828529
325880,-0.340157032012939,53.0051907541637
325990,-0.341192841529846,52.8849924611299
326100,-0.341399997472763,52.524414873015
326210,-0.34160715341568,51.9835528135893
326320,-0.34160715341568,51.5027855779339
326430,-0.339949876070023,51.8032683422785
326540,-0.34077849984169,51.9835614590826
326650,-0.341399997472763,51.3825959303934
326760,-0.340571343898773,51.8032683422785
326870,-0.341192841529846,51.8633631660488
326970,-0.34077849984169,51.8032683422785
327080,-0.340571343898773,51.8633631660488
327190,-0.340985685586929,51.9835528135893
327300,-0.340985685586929,51.9234493443258
327410,-0.340157032012939,52.2840269324407
327520,-0.340364187955856,52.5845096967853
327630,-0.340364187955856,52.8248976373596
327740,-0.34077849984169,52.8850011066231
327850,-0.339535564184189,53.3056735185083
327960,-0.34243580698967,52.8850011066231
328070,-0.34160715341568,52.4042338709677
328180,-0.341814309358597,52.1037511066231
328290,-0.342021465301514,51.7431735185083
328390,-0.34160715341568,51.6229838709677
328500,-0.340364187955856,51.6229838709677
328610,-0.34160715341568,51.3825959303934
328720,-0.341399997472763,51.3225011066231
328830,-0.342228621244431,51.3225011066231
328940,-0.340985685586929,51.0220183422785
329050,-0.341399997472763,50.6614407541637
329160,-0.341814309358597,50.1806735185083
329270,-0.340364187955856,50.7215355779339
329380,-0.340571343898773,50.6614407541637
329490,-0.340157032012939,50.7816304017042
329600,-0.34077849984169,50.9619235185083
329700,-0.342021465301514,50.4210614590826
329810,-0.341192841529846,50.4811562828529
329920,-0.339742720127106,50.8417338709677
330030,-0.341399997472763,50.8417338709677
330140,-0.339949876070023,51.1422166353123
330250,-0.342021465301514,50.6614493996569
330360,-0.34077849984169,50.7816476926908
330470,-0.341192841529846,50.5412597521164
330580,-0.340571343898773,50.6614580451502
330690,-0.341192841529846,50.3008804570354
330800,-0.341192841529846,50.4210701045759
330910,-0.341192841529846,50.2407769877718
331020,-0.340571343898773,50.3008718115421
331120,-0.341399997472763,50.2407769877718
331230,-0.341192841529846,50.0003890471975
331340,-0.342228621244431,49.8201045758867
331450,-0.34077849984169,50.0003976926908
331560,-0.339742720127106,50.4811649283462
331670,-0.340985685586929,50.2407769877718
331780,-0.341399997472763,49.880199399657
331890,-0.341814309358597,49.8201045758867
332000,-0.339742720127106,50.2407769877718
332110,-0.341399997472763,50.1806821640015
332220,-0.34077849984169,50.2407856332651
332330,-0.341399997472763,50.3008804570354
332430,-0.341399997472763,49.9403028689205
332540,-0.34160715341568,49.6398201045759
332650,-0.34077849984169,49.6999235738394
332760,-0.341399997472763,49.82011322138
332870,-0.339949876070023,50.1806908094948
332980,-0.34160715341568,50.3609752808056
333090,-0.34077849984169,50.5412683976097
333200,-0.34160715341568,50.4210787500692
333310,-0.340985685586929,50.6614580451502
333420,-0.34160715341568,50.4811735738394
333530,-0.341192841529846,50.5412683976097
333640,-0.341192841529846,50.841742516461
333750,-0.340364187955856,51.0220356332651
333850,-0.340364187955856,51.2624235738394
333960,-0.340571343898773,51.2624235738394
334070,-0.341399997472763,51.2023287500692
334180,-0.340985685586929,50.9018459857246
334290,-0.34077849984169,50.8417511619543
334400,-0.34077849984169,50.8417511619543
334510,-0.34077849984169,51.1422339262989
334620,-0.339949876070023,51.4427166906435
334730,-0.339742720127106,52.0436735738394
334840,-0.340571343898773,52.1638718668732
334950,-0.341814309358597,51.6831046312178
335060,-0.342021465301514,51.4427253361368
335160,-0.340364187955856,51.6230184529408
335270,-0.34077849984169,51.5028288054003
335380,-0.340157032012939,51.9835960410557
335490,-0.342021465301514,51.3225443340895
335600,-0.34243580698967,50.7215788054003
335710,-0.340571343898773,50.9018719222044
335820,-0.34160715341568,50.9018719222044
335930,-0.340985685586929,50.8417684529408
336040,-0.340364187955856,51.2023460410557
336150,-0.340364187955856,51.5028288054003
336260,-0.340985685586929,51.6230184529408
336370,-0.342021465301514,51.2023460410557
336480,-0.340157032012939,51.7432081004814
336580,-0.341192841529846,51.502820159907
336690,-0.340985685586929,51.502820159907
336800,-0.340985685586929,51.4427166906435
336910,-0.340157032012939,51.8032942787584
337020,-0.341192841529846,51.8633891025286
337130,-0.340364187955856,51.9234839262989
337240,-0.34077849984169,52.2840615144138
337350,-0.34160715341568,52.0436735738394
337460,-0.340985685586929,52.2239580451502
337570,-0.340985685586929,52.1638545758867
337680,-0.34077849984169,52.1037597521164
337790,-0.34077849984169,52.404242516461
337890,-0.34160715341568,52.404242516461
338000,-0.340571343898773,52.5845356332651
338110,-0.340571343898773,52.8249235738394
338220,-0.342021465301514,52.7648287500692
338330,-0.341192841529846,52.7648287500692
338440,-0.34077849984169,52.885027043103
338550,-0.34077849984169,52.7047425717922
338660,-0.341192841529846,52.9451218668732
338770,-0.341192841529846,52.8249235738394
338880,-0.340985685586929,53.185492516461
338990,-0.34077849984169,53.185492516461
339100,-0.342850118875504,52.7047252808056
339210,-0.340571343898773,52.8850183976097
339310,-0.341399997472763,52.5845356332651
339420,-0.340985685586929,52.4643373402313
339530,-0.34077849984169,52.6446304570354
339640,-0.340985685586929,52.7047252808056
339750,-0.341192841529846,52.8249149283462
339860,-0.34160715341568,52.404242516461
339970,-0.341399997472763,52.3441476926908
340080,-0.340364187955856,52.6446304570354
340190,-0.341399997472763,52.7047252808056
340300,-0.341192841529846,52.8249149283462
340410,-0.34077849984169,52.5845356332651
340520,-0.34077849984169,52.5845356332651
340620,-0.34077849984169,52.7648287500692
340730,-0.341814309358597,52.4042511619543
340840,-0.341192841529846,52.4042511619543
340950,-0.340571343898773,52.4643459857246
341060,-0.339949876070023,52.6446304570354
341170,-0.341399997472763,52.5244408094948
341280,-0.340985685586929,52.5244408094948
341390,-0.340157032012939,52.5244408094948
341500,-0.341399997472763,52.2239580451502
341610,-0.341192841529846,51.9835701045759
341720,-0.340985685586929,51.9234666353123
341830,-0.339742720127106,51.8633718115421
341940,-0.340364187955856,52.4643373402313
342040,-0.341192841529846,52.5845269877718
342150,-0.340364187955856,53.0051993996569
342260,-0.341399997472763,53.1854838709677
342370,-0.34077849984169,53.4258718115421
342480,-0.341399997472763,53.1253890471975
342590,-0.340985685586929,53.3056735185083
342700,-0.341192841529846,53.3657683422785
342810,-0.34077849984169,53.7864407541637
342920,-0.341192841529846,53.7263459303934
343030,-0.340571343898773,53.9667338709677
343140,-0.342021465301514,53.9066390471975
343250,-0.341814309358597,53.4859666353123
343350,-0.34160715341568,53.1854838709677
343460,-0.340985685586929,52.9450959303934
343570,-0.34160715341568,52.7047079898191
343680,-0.341399997472763,52.8849924611299
343790,-0.34077849984169,53.0051907541637
343900,-0.341192841529846,52.5845183422785
344010,-0.342228621244431,52.3441390471975
344120,-0.34160715341568,51.8633718115421
344230,-0.340985685586929,52.1638459303934
344340,-0.34077849984169,52.1638459303934
344450,-0.340985685586929,52.2239407541637
344560,-0.340157032012939,52.3441304017042
344670,-0.340364187955856,52.5845183422785
344770,-0.34160715341568,52.464328694738
344880,-0.34077849984169,52.5845269877718
344990,-0.342021465301514,52.1638545758867
345100,-0.34077849984169,52.3441476926908
345210,-0.341814309358597,52.16386322138
345320,-0.341192841529846,52.4643373402313
345430,-0.34077849984169,52.4643373402313
345540,-0.339742720127106,52.4643373402313
345650,-0.340985685586929,52.4643373402313
345760,-0.340571343898773,52.7047252808056
345870,-0.340985685586929,52.9451045758867
345980,-0.341814309358597,52.3441476926908
346080,-0.342021465301514,52.16386322138
346190,-0.342021465301514,51.8032856332651
346300,-0.341399997472763,51.8032856332651
346410,-0.340985685586929,51.9234752808056
346520,-0.340157032012939,52.3441476926908
346630,-0.34077849984169,52.3441476926908
346740,-0.34077849984169,52.5244408094948
346850,-0.341192841529846,52.16386322138
346960,-0.341192841529846,52.2840528689205
347070,-0.341192841529846,52.1638545758867
347180,-0.340985685586929,52.3441390471975
347290,-0.342850118875504,51.8032769877718
347400,-0.339535564184189,52.4042338709677
347500,-0.341814309358597,52.2239493996569
347610,-0.34160715341568,52.1037597521164
347720,-0.340571343898773,52.0436649283462
347830,-0.341399997472763,51.7431821640015
347940,-0.341399997472763,51.5027942234272
348050,-0.340985685586929,51.6229838709677
348160,-0.340157032012939,51.8633718115421
348270,-0.342228621244431,51.4426993996569
348380,-0.340571343898773,51.5027942234272
348490,-0.341192841529846,51.3825959303934
348600,-0.34160715341568,50.901828694738
348710,-0.340571343898773,50.6614493996569
348810,-0.340364187955856,50.7215442234272
348920,-0.34160715341568,50.7816390471975
349030,-0.342021465301514,50.7816390471975
349140,-0.340571343898773,50.7215442234272
349250,-0.34077849984169,50.7215442234272
349360,-0.34077849984169,50.5412597521164
349470,-0.341399997472763,50.7215442234272
