time,raw,transformed
4940,-0.338706910610199,0
5040,-0.338292598724365,0
5150,-0.337878257036209,0.00239756407936571
5260,-0.337463945150375,25.0008991188635
5370,-0.337878257036209,30.0010789426389
5480,-0.338085442781448,29.1674159323863
5610,-0.337463945150375,39.286356513472
5700,-0.336842477321625,32.1434810308685
5800,-0.337878257036209,31.7467494211311
5910,-0.338706910610199,42.2225063938625
6020,-0.338292598724365,40.4042664496615
6140,-0.338292598724365,38.8890664961637
6240,-0.337878257036209,39.3164715719054
6350,-0.338292598724365,38.0954283887468
6460,-0.338914066553116,41.3334100597999
6570,-0.338914066553116,38.7500719310613
6680,-0.338499754667282,37.6471095983956
6790,-0.338499754667282,36.666698636026
6900,-0.337671101093292,37.8947974156311
7010,-0.337878257036209,38.5000935103807
7110,-0.338085442781448,38.5714902266247
7220,-0.338499754667282,37.7273185015849
7330,-0.337671101093292,38.6957209775364
7440,-0.338914066553116,37.0833992701386
7550,-0.337463945150375,38.4000805627877
7660,-0.338085442781448,38.4615937931234
7770,-0.339121222496033,42.4242204067468
7880,-0.338292598724365,42.2077539917131
7990,-0.338292598724365,42.0062162949557
8100,-0.337878257036209,42.4242107190505
8210,-0.338085442781448,42.5219442759252
8320,-0.338499754667282,42.0453950982187
8430,-0.339742720127106,52.8141375114118
8530,-0.339742720127106,51.2607805257824
8640,-0.338706910610199,50.8166033481502
8750,-0.338914066553116,50.1986940596736
8860,-0.338499754667282,50.000277724392
8970,-0.338706910610199,49.624338292399
9080,-0.337878257036209,50.000289830328
9190,-0.338085442781448,50.1788503432126
9300,-0.339121222496033,49.4776383498963
9410,-0.338292598724365,49.4900755320412
9520,-0.338914066553116,49.0036056118314
9630,-0.338292598724365,49.026250938835
9740,-0.338706910610199,48.7304360137187
9840,-0.338706910610199,48.4474826070864
9950,-0.338085442781448,48.6324874525887
10060,-0.338499754667282,48.5121708317913
10170,-0.338706910610199,48.2509954945842
10280,-0.338292598724365,48.2859755846936
10390,-0.339535564184189,47.4792448937324
10500,-0.338499754667282,47.3903611391282
10610,-0.338914066553116,47.0352952490117
10720,-0.338914066553116,46.6933799474174
10830,-0.338292598724365,46.7535003120111
10940,-0.338914066553116,46.4288283236355
11050,-0.337671101093292,46.8674306094886
11160,-0.338914066553116,46.5519898914449
11260,-0.337878257036209,46.8525739317869
11370,-0.33932837843895,46.3098051707835
11480,-0.337671101093292,46.7215978502353
11590,-0.338499754667282,46.6592702986878
11700,-0.338914066553116,46.3721686901837
11810,-0.339535564184189,45.7592084035513
11920,-0.338292598724365,45.8244513511895
12030,-0.338914066553116,45.5630485877314
12140,-0.339949876070023,44.7763954693211
12250,-0.338706910610199,44.6431334669587
12360,-0.340364187955856,43.6855789089294
12470,-0.338914066553116,43.4696687668446
12570,-0.338914066553116,43.2598406005923
12680,-0.338706910610199,43.1550453048708
12790,-0.338914066553116,42.9552757659406
12900,-0.339949876070023,42.2782759536229
13010,-0.339742720127106,41.7145656075745
13120,-0.338914066553116,41.5416353885652
13230,-0.33932837843895,41.1876719195153
13340,-0.338914066553116,41.0259308559682
13450,-0.339121222496033,40.7778704478841
13560,-0.339121222496033,40.5360115500024
13670,-0.339121222496033,40.3001244767584
13780,-0.337878257036209,40.5926406205989
13890,-0.339742720127106,40.1035726613143
13990,-0.338499754667282,40.1363550064688
14100,-0.338914066553116,40.0003022294861
14210,-0.340157032012939,39.369072893198
14320,-0.339949876070023,38.8344546950491
14430,-0.338085442781448,39.0425030547151
14540,-0.339949876070023,38.5235680726885
14650,-0.33932837843895,38.2542667415664
14760,-0.338499754667282,38.304849410937
14870,-0.339121222496033,38.1214179892674
14980,-0.339742720127106,37.7115102689526
15090,-0.33932837843895,37.4623074817454
15200,-0.338914066553116,37.368723918391
15300,-0.339535564184189,37.0538696103416
15410,-0.340157032012939,36.5245985763033
15520,-0.339535564184189,36.2247833902774
15630,-0.338292598724365,36.3639269923952
15740,-0.338914066553116,36.2860064121006
15850,-0.337256789207459,36.7753982229568
15960,-0.338292598724365,36.9050511815568
16070,-0.339535564184189,36.6160964161585
16180,-0.340571343898773,35.9892989373238
16290,-0.338914066553116,35.9186567470916
16400,-0.338706910610199,35.9167314882383
16510,-0.339742720127106,35.5810611004979
16620,-0.338914066553116,35.516161173298
16720,-0.340157032012939,35.0592659268334
16830,-0.340157032012939,34.610677866668
16940,-0.338499754667282,34.6849716665581
17050,-0.338914066553116,34.630390392418
17160,-0.339535564184189,34.3871365866941
17270,-0.339742720127106,34.0854950376879
17380,-0.33932837843895,33.9133294136362
17490,-0.338914066553116,33.8672823407852
17600,-0.339535564184189,33.638867195528
17710,-0.339949876070023,33.293260606196
17820,-0.339535564184189,33.0735080829979
17930,-0.340571343898773,32.5598051707842
18030,-0.339949876070023,32.2316852078384
18140,-0.339535564184189,32.0260378729026
18250,-0.339121222496033,31.9398843830184
18360,-0.340157032012939,31.5670996646766
18470,-0.339535564184189,31.3717045501245
18580,-0.340364187955856,30.9526582359407
18690,-0.339535564184189,30.765178331294
18800,-0.339535564184189,30.5806278001562
18910,-0.338706910610199,30.5806278001562
19020,-0.338292598724365,30.5806278001562
19130,-0.33932837843895,30.1900028001562
19240,-0.339535564184189,29.6319624984586
19350,-0.339742720127106,29.1297246213367
19450,-0.339949876070023,28.6274947721855
19560,-0.339742720127106,28.0136520459123
19670,-0.339949876070023,27.1765996213367
19780,-0.340157032012939,26.5627568950635
19890,-0.339949876070023,26.2279343196391
20000,-0.338499754667282,26.1721318950635
20110,-0.339949876070023,25.7257044704879
20220,-0.340571343898773,25.0002568950635
20330,-0.33932837843895,24.7212447721855
20440,-0.339535564184189,24.5538294704879
20550,-0.338914066553116,24.5538294704879
20660,-0.339535564184189,24.2748093196391
20770,-0.338085442781448,24.3864141687903
20870,-0.339535564184189,23.8841762916684
20980,-0.33932837843895,23.4935512916684
21090,-0.338085442781448,23.4935512916684
21200,-0.339535564184189,23.2145311408196
21310,-0.339535564184189,22.7122932636976
21420,-0.33932837843895,22.6006884145464
21530,-0.339742720127106,21.9868456882733
21640,-0.339121222496033,21.7078335653952
21750,-0.338914066553116,21.7636359899708
21860,-0.339535564184189,21.4288134145464
21970,-0.339949876070023,20.9823859899708
22080,-0.338292598724365,20.8707731128489
22180,-0.339742720127106,20.4243456882733
22290,-0.338706910610199,20.3685432636976
22400,-0.340157032012939,20.2569384145464
22510,-0.33932837843895,20.3685512916684
22620,-0.339742720127106,20.0895311408196
22730,-0.340364187955856,19.6989061408196
22840,-0.339121222496033,19.5314988670928
22950,-0.339742720127106,19.252478716244
23060,-0.338914066553116,18.9734585653952
23170,-0.339742720127106,18.5270311408196
23280,-0.339535564184189,18.4154182636976
23390,-0.338914066553116,18.2480109899708
23500,-0.34077849984169,17.7457811408196
23600,-0.338706910610199,17.6341762916684
23710,-0.339742720127106,17.3551561408196
23820,-0.33932837843895,17.1877488670928
23930,-0.340364187955856,16.5739141687903
24040,-0.340985685586929,15.9042690179416
24150,-0.340157032012939,15.5136440179416
24260,-0.339742720127106,15.1230190179416
24370,-0.338914066553116,15.2904343196391
24480,-0.33932837843895,15.0672246213367
24590,-0.339949876070023,14.7882044704879
24700,-0.339535564184189,14.6207891687903
24810,-0.340364187955856,14.0627568950635
24910,-0.340157032012939,13.7279343196391
25020,-0.33932837843895,13.2815068950635
25130,-0.340364187955856,12.8908818950635
25240,-0.339742720127106,12.3886440179416
25350,-0.338706910610199,12.5560512916684
25460,-0.339742720127106,11.9980109899708
25570,-0.338706910610199,11.9422085653952
25680,-0.339535564184189,11.7747932636976
25790,-0.339949876070023,11.6631884145464
25900,-0.338914066553116,11.4957811408196
26010,-0.339949876070023,11.2167609899708
26120,-0.339742720127106,11.2725634145464
26230,-0.33932837843895,11.1051561408196
26330,-0.339121222496033,11.439978716244
26440,-0.338085442781448,11.6631884145464
26550,-0.338499754667282,11.7747932636976
26660,-0.33932837843895,11.6073859899708
26770,-0.340157032012939,11.2725634145464
26880,-0.340364187955856,11.1609585653952
26990,-0.339535564184189,11.2167609899708
27100,-0.33932837843895,11.1051561408196
27210,-0.33932837843895,11.1051561408196
27320,-0.340157032012939,10.7703335653952
27430,-0.339535564184189,10.6587206882733
27540,-0.340364187955856,10.3238981128489
27640,-0.339535564184189,10.2122852357269
27750,-0.33932837843895,9.82166023572691
27860,-0.339535564184189,9.87746266030252
27970,-0.340571343898773,9.31943038657569
28080,-0.339949876070023,9.04041023572691
28190,-0.338914066553116,9.3752328111513
28300,-0.33932837843895,9.54264811284886
28410,-0.339742720127106,9.09622068827325
28520,-0.339535564184189,9.20782553742447
28630,-0.33932837843895,9.20782553742447
28740,-0.339535564184189,8.92880538657569
28850,-0.339949876070023,8.70558766030252
28960,-0.33932837843895,8.81720053742447
29060,-0.340157032012939,8.5939828111513
29170,-0.33932837843895,8.48237796200008
29280,-0.33932837843895,8.53818841454643
29390,-0.340985685586929,8.31497068827325
29500,-0.340157032012939,8.14756341454643
29610,-0.339535564184189,7.81274083912204
29720,-0.340364187955856,7.42211583912204
29830,-0.340157032012939,6.64086583912204
29940,-0.339742720127106,6.25024083912204
30050,-0.339742720127106,6.19443841454643
30160,-0.340571343898773,6.19443841454643
30270,-0.339949876070023,5.91541826369764
30370,-0.340364187955856,5.46899083912204
30480,-0.339742720127106,5.46899083912204
30590,-0.340157032012939,5.13416826369764
30700,-0.340364187955856,5.07836583912204
30810,-0.339535564184189,5.24577311284886
30920,-0.340157032012939,4.79934568827325
31030,-0.339949876070023,4.52032553742447
31140,-0.339949876070023,4.40872068827325
31250,-0.33932837843895,4.52033356539521
31360,-0.340364187955856,4.24131341454643
31470,-0.340571343898773,3.79488598997082
31580,-0.339742720127106,3.73908356539521
31690,-0.339949876070023,3.73908356539521
31790,-0.339121222496033,3.85069644251716
31900,-0.338706910610199,4.35292629166838
32010,-0.339742720127106,4.40872871624399
32120,-0.340157032012939,4.24132144251716
32230,-0.33932837843895,4.18551901794155
32340,-0.339949876070023,4.24132144251716
32450,-0.339742720127106,4.18551901794155
32560,-0.340571343898773,4.12971659336594
32670,-0.340157032012939,3.96230931963911
32780,-0.339949876070023,3.8507044704879
32890,-0.339742720127106,3.57168431963911
33000,-0.339535564184189,3.23686174421472
33100,-0.340157032012939,3.01364401794155
33210,-0.339949876070023,2.90203916879033
33320,-0.339949876070023,2.84623674421472
33430,-0.339949876070023,2.84623674421472
33540,-0.33932837843895,2.95784962133668
33650,-0.339742720127106,3.01365204591229
33760,-0.340157032012939,3.01365204591229
33870,-0.339742720127106,3.0694544704879
33980,-0.339949876070023,2.6788294704879
34090,-0.339742720127106,2.7346318950635
34200,-0.339949876070023,2.90203916879033
34310,-0.33932837843895,2.90203916879033
34420,-0.33932837843895,2.95784962133668
34520,-0.340157032012939,2.62302704591229
34630,-0.339949876070023,2.51142219676107
34740,-0.34077849984169,1.78598264930741
34850,-0.34077849984169,1.45116810185375
34960,-0.34077849984169,1.06054310185375
35070,-0.340157032012939,0.502510828126927
35180,-0.339949876070023,0.390905978975708
35290,-0.340571343898773,0.111893856097661
35400,-0.338706910610199,0.279301129824489
35510,-0.340364187955856,0.111893856097661
35620,-0.340364187955856,0
35730,-0.339742720127106,0
35830,-0.339742720127106,0
35940,-0.340157032012939,0
36050,-0.33932837843895,0
36160,-0.340571343898773,0
36270,-0.339742720127106,0
36380,-0.340571343898773,0
36490,-0.339742720127106,0
36600,-0.341192841529846,0
36710,-0.339742720127106,0
36820,-0.33932837843895,0
36930,-0.341399997472763,0
37040,-0.339949876070023,0
37150,-0.339742720127106,0
37250,-0.340985685586929,0
37360,-0.340985685586929,0
37470,-0.34077849984169,0
37580,-0.340157032012939,0
37690,-0.339949876070023,0
37800,-0.339949876070023,0
37910,-0.34077849984169,0
38020,-0.340364187955856,0
38130,-0.341192841529846,0
38240,-0.33932837843895,0
38350,-0.339949876070023,0
38460,-0.340364187955856,0
38560,-0.340157032012939,0
38670,-0.33932837843895,0
38780,-0.340985685586929,0
38890,-0.340157032012939,0
39000,-0.340364187955856,0
39110,-0.338499754667282,0
39220,-0.340571343898773,0
39330,-0.340157032012939,0
39440,-0.340985685586929,0
39550,-0.339742720127106,0
39660,-0.339949876070023,0
39770,-0.339742720127106,0
39880,-0.339949876070023,0
39980,-0.339949876070023,0
40090,-0.340364187955856,0
40200,-0.340571343898773,0
40310,-0.340571343898773,0
40420,-0.340985685586929,0
40530,-0.340157032012939,0
40640,-0.340364187955856,0
40750,-0.340157032012939,0
40860,-0.33932837843895,0
40970,-0.33932837843895,0
41080,-0.339742720127106,0
41190,-0.340985685586929,0
41290,-0.340571343898773,0
41400,-0.340157032012939,0
41510,-0.34077849984169,0
41620,-0.339742720127106,0
41730,-0.340364187955856,0
41840,-0.34077849984169,0
41950,-0.340571343898773,0
42060,-0.340157032012939,0
42170,-0.339742720127106,0
42280,-0.339742720127106,0
42390,-0.339535564184189,0
42500,-0.340571343898773,0
42610,-0.340364187955856,0
42710,-0.34077849984169,0
42820,-0.340157032012939,0
42930,-0.339949876070023,0
43040,-0.339121222496033,0
43150,-0.340157032012939,0
43260,-0.340364187955856,0
43370,-0.339742720127106,0
43480,-0.34077849984169,0
43590,-0.34077849984169,0
43700,-0.340571343898773,0
43810,-0.339742720127106,0
43920,-0.340985685586929,0
44020,-0.340571343898773,0
44130,-0.33932837843895,0
44240,-0.340571343898773,0
44350,-0.340571343898773,0
44460,-0.340985685586929,0
44570,-0.340985685586929,0
44680,-0.340571343898773,0
44790,-0.340364187955856,0
44900,-0.340571343898773,0
45010,-0.34077849984169,0
45120,-0.341399997472763,0
45230,-0.340571343898773,0
45340,-0.340985685586929,0
45440,-0.341814309358597,0
45550,-0.339535564184189,0
45660,-0.340985685586929,0
45770,-0.340364187955856,0
45880,-0.339535564184189,0
45990,-0.341814309358597,0
46100,-0.340571343898773,0
46210,-0.341399997472763,0
46320,-0.341192841529846,0
46430,-0.339949876070023,0
46540,-0.34077849984169,0
46650,-0.340571343898773,0
46750,-0.339742720127106,0
46860,-0.340364187955856,0
46970,-0.340571343898773,0
47080,-0.341399997472763,0
47190,-0.34077849984169,0
47300,-0.341399997472763,0
47410,-0.341192841529846,0
47520,-0.339949876070023,0
47630,-0.340364187955856,0
47740,-0.340364187955856,0
47850,-0.34077849984169,0
47960,-0.339535564184189,0
48070,-0.340364187955856,0
48170,-0.340364187955856,0
48280,-0.340985685586929,0
48390,-0.339742720127106,0
48500,-0.340364187955856,0
48610,-0.340364187955856,0
48720,-0.34077849984169,0
48830,-0.340364187955856,0
48940,-0.338914066553116,0
49050,-0.340985685586929,0
49160,-0.339949876070023,0
49270,-0.340364187955856,0
49380,-0.340571343898773,0
49480,-0.340571343898773,0
49590,-0.339535564184189,0
49700,-0.33932837843895,0
49810,-0.340571343898773,0
49920,-0.339121222496033,0
50030,-0.340157032012939,0
50140,-0.340364187955856,0
50250,-0.340571343898773,0
50360,-0.33932837843895,0
50470,-0.34077849984169,0
50580,-0.340364187955856,0
50690,-0.342228621244431,0
50800,-0.340985685586929,0
50900,-0.340364187955856,0
51010,-0.341399997472763,0
51120,-0.340157032012939,0
51230,-0.34077849984169,0
51340,-0.339535564184189,0
51450,-0.340985685586929,0
51560,-0.340571343898773,0
51670,-0.340364187955856,0
51780,-0.340571343898773,0
51890,-0.340571343898773,0
52000,-0.33932837843895,0
52110,-0.340157032012939,0
52210,-0.340364187955856,0
52320,-0.340157032012939,0
52430,-0.34160715341568,0
52540,-0.339742720127106,0
52650,-0.340985685586929,0
52760,-0.341399997472763,0
52870,-0.340985685586929,0
52980,-0.339742720127106,0
53090,-0.340571343898773,0
53200,-0.340985685586929,0
53310,-0.340571343898773,0
53420,-0.340571343898773,0
53530,-0.33932837843895,0
53630,-0.34077849984169,0
53740,-0.341399997472763,0
53850,-0.339742720127106,0
53960,-0.340157032012939,0
54070,-0.340985685586929,0
54180,-0.34077849984169,0
54290,-0.340157032012939,0
54400,-0.340571343898773,0
54510,-0.33932837843895,0
54620,-0.339742720127106,0
54730,-0.34077849984169,0
54840,-0.339742720127106,0
54940,-0.340157032012939,0
55050,-0.339949876070023,0
55160,-0.340364187955856,0
55270,-0.340985685586929,0
55380,-0.340364187955856,0
55490,-0.340985685586929,0
55600,-0.341399997472763,0
55710,-0.340364187955856,0
55820,-0.339121222496033,0
55930,-0.340571343898773,0
56040,-0.341192841529846,0
56150,-0.341192841529846,0
56260,-0.340985685586929,0
56360,-0.340571343898773,0
56470,-0.339949876070023,0
56580,-0.341192841529846,0
56690,-0.342021465301514,0
56800,-0.340364187955856,0
56910,-0.339121222496033,0
57020,-0.34077849984169,0
57130,-0.339121222496033,0
57240,-0.34077849984169,0
57350,-0.339949876070023,0
57460,-0.340571343898773,0
57570,-0.339535564184189,0
57670,-0.340157032012939,0
57780,-0.341814309358597,0
57890,-0.340157032012939,0
58000,-0.340157032012939,0
58110,-0.339949876070023,0
58220,-0.340157032012939,0
58330,-0.34077849984169,0
58440,-0.340364187955856,0
58550,-0.340985685586929,0
58660,-0.339535564184189,0
58770,-0.34077849984169,0
58880,-0.340364187955856,0
58990,-0.341192841529846,0
59090,-0.339742720127106,0
59200,-0.340157032012939,0
59310,-0.340157032012939,0
59420,-0.340364187955856,0
59530,-0.340985685586929,0
59640,-0.339949876070023,0
59750,-0.340364187955856,0
59860,-0.340571343898773,0
59970,-0.339949876070023,0
60080,-0.339949876070023,0
60190,-0.340364187955856,0
60300,-0.339742720127106,0
60400,-0.340157032012939,0
60510,-0.340571343898773,0
60620,-0.34077849984169,0
60730,-0.339949876070023,0
60840,-0.340571343898773,0
60950,-0.341399997472763,0
61060,-0.341192841529846,0
61170,-0.340571343898773,0
61280,-0.341399997472763,0
61390,-0.340157032012939,0
61500,-0.340985685586929,0
61610,-0.340985685586929,0
61720,-0.340364187955856,0
61820,-0.340157032012939,0
61930,-0.340364187955856,0
62040,-0.340157032012939,0
62150,-0.340157032012939,0
62260,-0.339535564184189,0
62370,-0.34077849984169,0
62480,-0.340364187955856,0
62590,-0.341192841529846,0
62700,-0.340571343898773,0
62810,-0.341399997472763,0
62920,-0.341192841529846,0
63030,-0.341399997472763,0
63130,-0.340571343898773,0
63240,-0.340985685586929,0
63350,-0.340985685586929,0
63460,-0.339121222496033,0
63570,-0.341192841529846,0
63680,-0.340157032012939,0
63790,-0.339949876070023,0
63900,-0.341399997472763,0
64010,-0.341399997472763,0
64120,-0.339121222496033,0
64230,-0.339949876070023,0
64340,-0.340985685586929,0
64450,-0.340985685586929,0
64550,-0.340364187955856,0
64660,-0.340571343898773,0
64770,-0.34077849984169,0
64880,-0.340985685586929,0
64990,-0.340985685586929,0
65100,-0.340364187955856,0
65210,-0.34077849984169,0
65320,-0.340364187955856,0
65430,-0.340985685586929,0
65540,-0.340571343898773,0
65650,-0.340571343898773,0
65760,-0.340364187955856,0
65860,-0.34077849984169,0
65970,-0.340985685586929,0
66080,-0.341192841529846,0
66190,-0.340571343898773,0
66300,-0.339742720127106,0
66410,-0.34160715341568,0
66520,-0.340364187955856,0
66630,-0.340364187955856,0
66740,-0.342021465301514,0
66850,-0.339949876070023,0
66960,-0.339742720127106,0
67070,-0.340985685586929,0
67180,-0.341192841529846,0
67280,-0.340157032012939,0
67390,-0.340364187955856,0
67500,-0.340985685586929,0
67610,-0.341192841529846,0
67720,-0.340157032012939,0
67830,-0.339949876070023,0
67940,-0.340985685586929,0
68050,-0.340571343898773,0
68160,-0.339121222496033,0
68270,-0.340985685586929,0
68380,-0.34077849984169,0
68490,-0.340157032012939,0
68590,-0.340364187955856,0
68700,-0.339949876070023,0
68810,-0.340364187955856,0
68920,-0.34077849984169,0
69030,-0.340985685586929,0
69140,-0.34077849984169,0
69250,-0.341192841529846,0
69360,-0.339121222496033,0
69470,-0.340985685586929,0
69580,-0.340571343898773,0
69690,-0.341192841529846,0
69800,-0.340571343898773,0
69910,-0.340364187955856,0
70010,-0.340571343898773,0
70120,-0.340571343898773,0
70230,-0.34077849984169,0
70340,-0.340364187955856,0
70450,-0.339742720127106,0
70560,-0.341192841529846,0
70670,-0.342228621244431,0
70780,-0.340571343898773,0
70890,-0.341192841529846,0
71000,-0.340571343898773,0
71110,-0.34077849984169,0
71220,-0.339742720127106,0
71320,-0.339742720127106,0
71430,-0.341192841529846,0
71540,-0.339742720127106,0
71650,-0.339949876070023,0
71760,-0.34160715341568,0
71870,-0.339742720127106,0
71980,-0.339742720127106,0
72090,-0.340157032012939,0
72200,-0.34160715341568,0
72310,-0.34077849984169,0
72420,-0.34160715341568,0
72530,-0.339949876070023,0
72640,-0.341192841529846,0
72740,-0.339121222496033,0
72850,-0.340157032012939,0
72960,-0.340571343898773,0
73070,-0.34077849984169,0
73180,-0.340364187955856,0
73290,-0.339949876070023,0
73400,-0.340571343898773,0
73510,-0.340157032012939,0
73620,-0.34160715341568,0
73730,-0.340985685586929,0
73840,-0.341192841529846,0
73950,-0.34160715341568,0
74050,-0.340985685586929,0
74160,-0.34077849984169,0
74270,-0.340571343898773,0
74380,-0.340157032012939,0
74490,-0.340571343898773,0
74600,-0.340571343898773,0
74710,-0.341814309358597,0
74820,-0.34077849984169,0
74930,-0.34077849984169,0
75040,-0.34160715341568,0
75150,-0.34160715341568,0
75260,-0.340157032012939,0
75370,-0.34160715341568,0
75470,-0.340985685586929,0
75580,-0.341399997472763,0
75690,-0.340157032012939,0
75800,-0.340157032012939,0
75910,-0.341192841529846,0
76020,-0.340985685586929,0
76130,-0.340985685586929,0
76240,-0.341399997472763,0
76350,-0.34160715341568,0
76460,-0.339742720127106,0
76570,-0.341192841529846,0
76680,-0.341192841529846,0
76780,-0.340364187955856,0
76890,-0.340571343898773,0
77000,-0.340985685586929,0
77110,-0.339742720127106,0
77220,-0.341399997472763,0
77330,-0.340985685586929,0
77440,-0.340985685586929,0
77550,-0.339949876070023,0
77660,-0.340985685586929,0
77770,-0.341192841529846,0
77880,-0.340571343898773,0
77990,-0.34077849984169,0
78100,-0.34160715341568,0
78200,-0.340985685586929,0
78310,-0.34077849984169,0
78420,-0.34077849984169,0
78530,-0.34077849984169,0
78640,-0.340364187955856,0
78750,-0.340364187955856,0
78860,-0.339742720127106,0
78970,-0.340157032012939,0
79080,-0.341192841529846,0
79190,-0.340985685586929,0
79300,-0.34077849984169,0
79410,-0.340364187955856,0
79510,-0.341399997472763,0
79620,-0.339949876070023,0
79730,-0.340157032012939,0
79840,-0.341192841529846,0
79950,-0.34077849984169,0
80060,-0.341192841529846,0
80170,-0.340364187955856,0
80280,-0.341192841529846,0
80390,-0.340364187955856,0
80500,-0.34077849984169,0
80610,-0.34077849984169,0
80720,-0.341399997472763,0
80830,-0.342228621244431,0
80930,-0.340364187955856,0
81040,-0.34077849984169,0
81150,-0.341814309358597,0
81260,-0.342021465301514,0
81370,-0.34077849984169,0
81480,-0.340985685586929,0
81590,-0.341192841529846,0
81700,-0.34077849984169,0
81810,-0.34077849984169,0
81920,-0.340985685586929,0
82030,-0.33932837843895,0
82140,-0.339949876070023,0
82240,-0.340985685586929,0
82350,-0.341192841529846,0
82460,-0.339742720127106,0
82570,-0.340157032012939,0
82680,-0.340364187955856,0
82790,-0.341399997472763,0
82900,-0.341192841529846,0
83010,-0.34077849984169,0
83120,-0.341192841529846,0
83230,-0.34077849984169,0
83340,-0.34077849984169,0
83450,-0.340157032012939,0
83560,-0.34160715341568,0
83660,-0.340985685586929,0
83770,-0.34077849984169,0
83880,-0.341814309358597,0
83990,-0.34160715341568,0
84100,-0.340985685586929,0
84210,-0.341399997472763,0
84320,-0.340985685586929,0
84430,-0.341399997472763,0
84540,-0.339949876070023,0
84650,-0.340985685586929,0
84760,-0.340571343898773,0
84870,-0.339949876070023,0
84970,-0.34077849984169,0
85080,-0.341399997472763,0
85190,-0.341399997472763,0
85300,-0.340157032012939,0
85410,-0.340364187955856,0
85520,-0.341192841529846,0
85630,-0.340571343898773,0
85740,-0.34077849984169,0
85850,-0.34077849984169,0
85960,-0.340985685586929,0
86070,-0.342021465301514,0
86180,-0.340157032012939,0
86290,-0.341192841529846,0
86390,-0.340571343898773,0
86500,-0.34243580698967,0
86610,-0.34160715341568,0
86720,-0.340364187955856,0
86830,-0.341399997472763,0
86940,-0.34077849984169,0
87050,-0.34077849984169,0
87160,-0.339535564184189,0
87270,-0.339949876070023,0
87380,-0.34077849984169,0
87490,-0.340364187955856,0
87600,-0.339742720127106,0
87700,-0.339949876070023,0
87810,-0.341192841529846,0
87920,-0.34077849984169,0
88030,-0.340985685586929,0
88140,-0.34160715341568,0
88250,-0.340157032012939,0
88360,-0.341192841529846,0
88470,-0.34077849984169,0
88580,-0.341399997472763,0
88690,-0.340364187955856,0
88800,-0.34077849984169,0
88910,-0.34077849984169,0
89020,-0.340985685586929,0
89120,-0.340571343898773,0
89230,-0.341192841529846,0
89340,-0.340571343898773,0
89450,-0.340985685586929,0
89560,-0.340571343898773,0
89670,-0.340571343898773,0
89780,-0.34077849984169,0
89890,-0.340364187955856,0
90000,-0.340985685586929,0
90110,-0.34077849984169,0
90220,-0.341814309358597,0
90330,-0.340571343898773,0
90430,-0.340364187955856,0
90540,-0.34077849984169,0
90650,-0.340157032012939,0
90760,-0.341192841529846,0
90870,-0.34160715341568,0
90980,-0.340364187955856,0
91090,-0.339121222496033,0
91200,-0.339949876070023,0
91310,-0.340571343898773,0
91420,-0.341192841529846,0
91530,-0.341814309358597,0
91640,-0.340364187955856,0
91750,-0.340364187955856,0
91850,-0.340364187955856,0
91960,-0.342021465301514,0
92070,-0.340985685586929,0
92180,-0.340571343898773,0
92290,-0.340985685586929,0
92400,-0.340157032012939,0
92510,-0.341192841529846,0
92620,-0.341814309358597,0
92730,-0.341399997472763,0
92840,-0.339949876070023,0
92950,-0.340985685586929,0
93060,-0.34160715341568,0
93160,-0.340364187955856,0
93270,-0.34160715341568,0
93380,-0.341399997472763,0
93490,-0.340985685586929,0
93600,-0.340364187955856,0
93710,-0.341192841529846,0
93820,-0.341192841529846,0
93930,-0.340571343898773,0
94040,-0.342228621244431,0
94150,-0.340985685586929,0
94260,-0.340571343898773,0
94370,-0.340985685586929,0
94480,-0.341814309358597,0
94580,-0.340157032012939,0
94690,-0.341399997472763,0
94800,-0.340364187955856,0
94910,-0.341399997472763,0
95020,-0.341399997472763,0
95130,-0.340985685586929,0
95240,-0.33932837843895,0
95350,-0.340985685586929,0
95460,-0.341399997472763,0
95570,-0.342021465301514,0
95680,-0.340985685586929,0
95790,-0.34077849984169,0
95890,-0.34077849984169,0
96000,-0.34077849984169,0
96110,-0.340571343898773,0
96220,-0.340571343898773,0
96330,-0.341192841529846,0
96440,-0.340364187955856,0
96550,-0.340364187955856,0
96660,-0.340571343898773,0
96770,-0.341192841529846,0
96880,-0.341192841529846,0
96990,-0.341814309358597,0
97100,-0.339535564184189,0
97210,-0.341192841529846,0
97310,-0.340364187955856,0
97420,-0.34077849984169,0
97530,-0.340571343898773,0
97640,-0.340571343898773,0
97750,-0.34077849984169,0
97860,-0.341192841529846,0
97970,-0.340571343898773,0
98080,-0.340364187955856,0
98190,-0.340571343898773,0
98300,-0.34077849984169,0
98410,-0.34077849984169,0
98520,-0.341192841529846,0
98630,-0.339742720127106,0
98730,-0.340364187955856,0
98840,-0.340571343898773,0
98950,-0.341192841529846,0
99060,-0.341192841529846,0
99170,-0.341399997472763,0
99280,-0.34077849984169,0
99390,-0.340571343898773,0
99500,-0.34160715341568,0
99610,-0.340985685586929,0
99720,-0.34077849984169,0
99830,-0.341399997472763,0
99940,-0.341192841529846,0
100040,-0.339949876070023,0
100150,-0.340571343898773,0
100260,-0.340364187955856,0
100370,-0.34160715341568,0
100480,-0.340364187955856,0
100590,-0.340985685586929,0
100700,-0.34077849984169,0
100810,-0.340985685586929,0
100920,-0.340985685586929,0
101030,-0.340985685586929,0
101140,-0.340571343898773,0
101250,-0.34160715341568,0
101360,-0.339949876070023,0
101460,-0.340157032012939,0
101570,-0.340571343898773,0
101680,-0.340571343898773,0
101790,-0.341399997472763,0
101900,-0.340571343898773,0
102010,-0.341192841529846,0
102120,-0.34077849984169,0
102230,-0.340985685586929,0
102340,-0.340364187955856,0
102450,-0.341814309358597,0
102560,-0.341399997472763,0
102670,-0.340157032012939,0
102770,-0.34160715341568,0
102880,-0.340364187955856,0
102990,-0.342021465301514,0
103100,-0.340985685586929,0
103210,-0.340985685586929,0
103320,-0.341399997472763,0
103430,-0.341192841529846,0
103540,-0.340571343898773,0
103650,-0.341192841529846,0
103760,-0.340571343898773,0
103870,-0.34077849984169,0
103980,-0.34077849984169,0
104090,-0.340985685586929,0
104190,-0.340985685586929,0
104300,-0.340985685586929,0
104410,-0.341399997472763,0
104520,-0.341192841529846,0
104630,-0.340157032012939,0
104740,-0.340364187955856,0
104850,-0.340571343898773,0
104960,-0.340364187955856,0
105070,-0.341814309358597,0
105180,-0.340571343898773,0
105290,-0.340157032012939,0
105400,-0.341192841529846,0
105500,-0.340571343898773,0
105610,-0.340364187955856,0
105720,-0.341192841529846,0
105830,-0.340364187955856,0
105940,-0.340364187955856,0
106050,-0.340157032012939,0
106160,-0.342021465301514,0
106270,-0.341192841529846,0
106380,-0.339742720127106,0
106490,-0.340364187955856,0
106600,-0.34077849984169,0
106710,-0.34077849984169,0
106820,-0.340571343898773,0
106920,-0.342021465301514,0
107030,-0.340157032012939,0
107140,-0.341399997472763,0
107250,-0.340364187955856,0
107360,-0.340985685586929,0
107470,-0.341399997472763,0
107580,-0.340985685586929,0
107690,-0.341399997472763,0
107800,-0.341192841529846,0
107910,-0.340157032012939,0
108020,-0.340571343898773,0
108130,-0.340985685586929,0
108230,-0.341192841529846,0
108340,-0.34077849984169,0
108450,-0.341399997472763,0
108560,-0.339949876070023,0
108670,-0.339535564184189,0
108780,-0.341814309358597,0
108890,-0.341399997472763,0
109000,-0.34077849984169,0
109110,-0.34077849984169,0
109220,-0.340985685586929,0
109330,-0.339949876070023,0
109440,-0.340364187955856,0
109550,-0.341814309358597,0
109650,-0.341192841529846,0
109760,-0.34077849984169,0
109870,-0.340571343898773,0
109980,-0.340157032012939,0
110090,-0.340571343898773,0
110200,-0.341814309358597,0
110310,-0.340985685586929,0
110420,-0.341192841529846,0
110530,-0.339949876070023,0
110640,-0.340985685586929,0
110750,-0.340985685586929,0
110860,-0.340571343898773,0
110960,-0.340985685586929,0
111070,-0.34160715341568,0
111180,-0.340985685586929,0
111290,-0.340364187955856,0
111400,-0.341192841529846,0
111510,-0.34243580698967,0
111620,-0.34160715341568,0
111730,-0.340364187955856,0
111840,-0.341399997472763,0
111950,-0.340157032012939,0
112060,-0.339949876070023,0
112170,-0.340985685586929,0
112280,-0.342021465301514,0
112380,-0.342228621244431,0
112490,-0.341399997472763,0
112600,-0.342228621244431,0
112710,-0.340157032012939,0
112820,-0.340985685586929,0
112930,-0.341814309358597,0
113040,-0.339949876070023,0
113150,-0.342228621244431,0
113260,-0.342021465301514,0
113370,-0.34077849984169,0
113480,-0.340364187955856,0
113590,-0.340985685586929,0
113690,-0.340364187955856,0
113800,-0.341814309358597,0
113910,-0.339949876070023,0
114020,-0.33932837843895,0
114130,-0.34077849984169,0
114240,-0.340571343898773,0
114350,-0.34077849984169,0
114460,-0.34160715341568,0
114570,-0.340571343898773,0
114680,-0.341814309358597,0
114790,-0.340985685586929,0
114900,-0.340985685586929,0
115010,-0.340985685586929,0
115110,-0.340157032012939,0
115220,-0.340985685586929,0
115330,-0.341192841529846,0
115440,-0.341399997472763,0
115550,-0.339121222496033,0
115660,-0.34160715341568,0
115770,-0.34160715341568,0
115880,-0.340571343898773,0
115990,-0.34077849984169,0
116100,-0.340985685586929,0
116210,-0.342228621244431,0
116320,-0.341192841529846,0
116420,-0.34160715341568,0
116530,-0.34160715341568,0
116640,-0.340364187955856,0
116750,-0.34077849984169,0
116860,-0.34160715341568,0
116970,-0.340985685586929,0
117080,-0.341192841529846,0
117190,-0.34077849984169,0
117300,-0.340571343898773,0
117410,-0.34077849984169,0
117520,-0.341399997472763,0
117630,-0.34077849984169,0
117740,-0.341814309358597,0
117840,-0.340157032012939,0
117950,-0.340985685586929,0
118060,-0.339949876070023,0
118170,-0.342021465301514,0
118280,-0.339742720127106,0
118390,-0.339535564184189,0
118500,-0.341399997472763,0
118610,-0.340985685586929,0
118720,-0.34077849984169,0
118830,-0.341814309358597,0
118940,-0.341814309358597,0
119050,-0.341192841529846,0
119150,-0.34077849984169,0
119260,-0.339742720127106,0
119370,-0.341399997472763,0
119480,-0.341192841529846,0
119590,-0.341192841529846,0
119700,-0.340985685586929,0
119810,-0.341192841529846,0
119920,-0.339742720127106,0
120030,-0.340985685586929,0
120140,-0.341192841529846,0
120250,-0.342228621244431,0
120360,-0.342021465301514,0
120470,-0.341399997472763,0
120570,-0.341192841529846,0
120680,-0.34077849984169,0
120790,-0.341399997472763,0
120900,-0.340364187955856,0
121010,-0.341192841529846,0
121120,-0.340157032012939,0
121230,-0.34160715341568,0
121340,-0.341399997472763,0
121450,-0.341399997472763,0
121560,-0.341814309358597,0
121670,-0.340157032012939,0
121780,-0.340985685586929,0
121880,-0.340571343898773,0
121990,-0.34160715341568,0
122100,-0.341399997472763,0
122210,-0.341399997472763,0
122320,-0.341192841529846,0
122430,-0.340364187955856,0
122540,-0.34077849984169,0
122650,-0.341814309358597,0
122760,-0.34160715341568,0
122870,-0.34160715341568,0
122980,-0.340157032012939,0
123090,-0.341814309358597,0
123200,-0.340985685586929,0
123300,-0.339949876070023,0
123410,-0.341399997472763,0
123520,-0.342228621244431,0
123630,-0.34160715341568,0
123740,-0.341192841529846,0
123850,-0.341192841529846,0
123960,-0.340985685586929,0
124070,-0.340364187955856,0
124180,-0.340157032012939,0
124290,-0.341192841529846,0
124400,-0.34077849984169,0
124510,-0.340571343898773,0
124610,-0.341399997472763,0
124720,-0.339742720127106,0
124830,-0.34160715341568,0
124940,-0.340985685586929,0
125050,-0.341399997472763,0
125160,-0.340157032012939,0
125270,-0.340157032012939,0
125380,-0.340157032012939,0
125490,-0.340571343898773,0
125600,-0.340571343898773,0
125710,-0.34077849984169,0
125820,-0.340985685586929,0
125930,-0.340157032012939,0
126030,-0.340571343898773,0
126140,-0.34077849984169,0
126250,-0.340571343898773,0
126360,-0.340985685586929,0
126470,-0.340985685586929,0
126580,-0.34077849984169,0
126690,-0.34077849984169,0
126800,-0.341192841529846,0
126910,-0.340364187955856,0
127020,-0.34077849984169,0
127130,-0.339949876070023,0
127240,-0.34077849984169,0
127340,-0.340157032012939,0
127450,-0.34160715341568,0
127560,-0.340571343898773,0
127670,-0.340571343898773,0
127780,-0.34077849984169,0
127890,-0.340364187955856,0
128000,-0.340571343898773,0
128110,-0.340571343898773,0
128220,-0.340364187955856,0
128330,-0.342021465301514,0
128440,-0.34243580698967,0
128550,-0.339949876070023,0
128660,-0.34077849984169,0
128760,-0.341192841529846,0
128870,-0.340985685586929,0
128980,-0.340985685586929,0
129090,-0.339742720127106,0
129200,-0.340364187955856,0
129310,-0.341192841529846,0
129420,-0.339949876070023,0
129530,-0.340571343898773,0
129640,-0.341192841529846,0
129750,-0.341814309358597,0
129860,-0.341399997472763,0
129970,-0.340985685586929,0
130070,-0.341192841529846,0
130180,-0.34077849984169,0
130290,-0.340157032012939,0
130400,-0.339742720127106,0
130510,-0.340157032012939,0
130620,-0.34077849984169,0
130730,-0.339949876070023,0
130840,-0.34160715341568,0
130950,-0.341192841529846,0
131060,-0.34160715341568,0
131170,-0.341192841529846,0
131280,-0.341399997472763,0
131390,-0.34077849984169,0
131490,-0.341399997472763,0
131600,-0.341399997472763,0
131710,-0.340571343898773,0
131820,-0.34160715341568,0
131930,-0.341399997472763,0
132040,-0.34160715341568,0
132150,-0.34077849984169,0
132260,-0.340985685586929,0
132370,-0.340571343898773,0
132480,-0.340985685586929,0
132590,-0.340985685586929,0
132700,-0.340364187955856,0
132800,-0.340364187955856,0
132910,-0.341814309358597,0
133020,-0.339949876070023,0
133130,-0.34077849984169,0
133240,-0.34077849984169,0
133350,-0.340571343898773,0
133460,-0.340985685586929,0
133570,-0.34077849984169,0
133680,-0.340571343898773,0
133790,-0.34160715341568,0
133900,-0.34077849984169,0
134010,-0.34160715341568,0
134120,-0.340364187955856,0
134220,-0.340571343898773,0
134330,-0.34077849984169,0
134440,-0.341814309358597,0
134550,-0.340571343898773,0
134660,-0.340985685586929,0
134770,-0.34077849984169,0
134880,-0.340571343898773,0
134990,-0.339742720127106,0
135100,-0.340985685586929,0
135210,-0.340571343898773,0
135320,-0.340985685586929,0
135430,-0.340985685586929,0
135530,-0.340985685586929,0
135640,-0.340985685586929,0
135750,-0.340571343898773,0
135860,-0.341399997472763,0
135970,-0.340571343898773,0
136080,-0.341192841529846,0
136190,-0.340985685586929,0
136300,-0.340571343898773,0
136410,-0.342228621244431,0
136520,-0.340157032012939,0
136630,-0.342021465301514,0
136740,-0.34077849984169,0
136850,-0.34077849984169,0
136950,-0.341192841529846,0
137060,-0.340364187955856,0
137170,-0.340985685586929,0
137280,-0.34160715341568,0
137390,-0.341192841529846,0
137500,-0.341814309358597,0
137610,-0.339949876070023,0
137720,-0.34160715341568,0
137830,-0.341814309358597,0
137940,-0.342021465301514,0
138050,-0.340985685586929,0
138160,-0.341814309358597,0
138260,-0.340364187955856,0
138370,-0.341399997472763,0
138480,-0.342021465301514,0
138590,-0.341399997472763,0
138700,-0.339535564184189,0
138810,-0.340571343898773,0
138920,-0.340157032012939,0
139030,-0.340157032012939,0
139140,-0.342228621244431,0
139250,-0.341192841529846,0
139360,-0.341192841529846,0
139470,-0.340571343898773,0
139580,-0.340985685586929,0
139680,-0.341399997472763,0
139790,-0.341399997472763,0
139900,-0.34077849984169,0
140010,-0.341192841529846,0
140120,-0.341399997472763,0
140230,-0.340157032012939,0
140340,-0.34077849984169,0
140450,-0.34160715341568,0
140560,-0.341192841529846,0
140670,-0.340571343898773,0
140780,-0.341399997472763,0
140890,-0.340157032012939,0
140990,-0.34077849984169,0
141100,-0.340571343898773,0
141210,-0.341814309358597,0
141320,-0.34160715341568,0
141430,-0.341192841529846,0
141540,-0.339949876070023,0
141650,-0.34160715341568,0
141760,-0.341814309358597,0
141870,-0.341399997472763,0
141980,-0.34160715341568,0
142090,-0.341399997472763,0
142200,-0.340364187955856,0
142310,-0.339949876070023,0
142410,-0.340985685586929,0
142520,-0.341192841529846,0
142630,-0.340157032012939,0
142740,-0.341399997472763,0
142850,-0.341192841529846,0
142960,-0.341192841529846,0
143070,-0.341814309358597,0
143180,-0.340157032012939,0
143290,-0.340985685586929,0
143400,-0.341192841529846,0
143510,-0.340571343898773,0
143620,-0.34160715341568,0
143720,-0.340571343898773,0
143830,-0.340571343898773,0
143940,-0.34077849984169,0
144050,-0.340571343898773,0
144160,-0.341399997472763,0
144270,-0.340985685586929,0
144380,-0.340571343898773,0
144490,-0.340364187955856,0
144600,-0.34077849984169,0
144710,-0.34077849984169,0
144820,-0.340571343898773,0
144930,-0.340571343898773,0
145040,-0.340571343898773,0
145140,-0.340571343898773,0
145250,-0.339535564184189,0
145360,-0.34077849984169,0
145470,-0.340985685586929,0
145580,-0.34077849984169,0
145690,-0.342642962932587,0
145800,-0.34243580698967,0
145910,-0.340571343898773,0
146020,-0.341192841529846,0
146130,-0.340157032012939,0
146240,-0.340364187955856,0
146350,-0.340985685586929,0
146450,-0.34160715341568,0
146560,-0.341399997472763,0
146670,-0.34243580698967,0
146780,-0.341399997472763,0
146890,-0.340364187955856,0
147000,-0.34160715341568,0
147110,-0.34160715341568,0
147220,-0.342021465301514,0
147330,-0.34160715341568,0
147440,-0.34160715341568,0
147550,-0.340364187955856,0
147660,-0.34077849984169,0
147770,-0.342228621244431,0
147870,-0.339742720127106,0
147980,-0.341814309358597,0
148090,-0.34160715341568,0
148200,-0.340157032012939,0
148310,-0.341399997472763,0
148420,-0.340985685586929,0
148530,-0.340985685586929,0
148640,-0.340364187955856,0
148750,-0.340985685586929,0
148860,-0.341399997472763,0
148970,-0.34077849984169,0
149080,-0.341192841529846,0
149180,-0.340364187955856,0
149290,-0.340985685586929,0
149400,-0.340985685586929,0
149510,-0.341399997472763,0
149620,-0.340985685586929,0
149730,-0.340157032012939,0
149840,-0.340985685586929,0
149950,-0.341399997472763,0
150060,-0.340571343898773,0
150170,-0.34160715341568,0
150280,-0.34077849984169,0
150390,-0.340985685586929,0
150500,-0.341399997472763,0
150600,-0.340571343898773,0
150710,-0.341192841529846,0
150820,-0.34077849984169,0
150930,-0.340571343898773,0
151040,-0.340985685586929,0
151150,-0.34077849984169,0
151260,-0.341192841529846,0
151370,-0.341814309358597,0
151480,-0.340985685586929,0
151590,-0.341399997472763,0
151700,-0.341192841529846,0
151810,-0.340364187955856,0
151910,-0.341192841529846,0
152020,-0.34243580698967,0
152130,-0.340985685586929,0
152240,-0.340985685586929,0
152350,-0.34160715341568,0
152460,-0.341399997472763,0
152570,-0.341814309358597,0
152680,-0.341192841529846,0
152790,-0.341399997472763,0
152900,-0.340157032012939,0
153010,-0.34077849984169,0
153120,-0.34243580698967,0
153230,-0.340571343898773,0
153330,-0.34077849984169,0
153440,-0.34077849984169,0
153550,-0.340571343898773,0
153660,-0.340364187955856,0
153770,-0.341192841529846,0
153880,-0.34077849984169,0
153990,-0.341192841529846,0
154100,-0.340157032012939,0
154210,-0.341814309358597,0
154320,-0.342021465301514,0
154430,-0.340985685586929,0
154540,-0.34160715341568,0
154640,-0.342021465301514,0
154750,-0.34160715341568,0
154860,-0.34077849984169,0
154970,-0.341192841529846,0
155080,-0.340157032012939,0
155190,-0.341399997472763,0
155300,-0.34077849984169,0
155410,-0.34077849984169,0
155520,-0.341192841529846,0
155630,-0.341192841529846,0
155740,-0.340571343898773,0
155850,-0.341399997472763,0
155960,-0.341192841529846,0
156060,-0.341399997472763,0
156170,-0.340571343898773,0
156280,-0.339949876070023,0
156390,-0.34160715341568,0
156500,-0.341814309358597,0
156610,-0.341192841529846,0
156720,-0.340985685586929,0
156830,-0.340364187955856,0
156940,-0.341399997472763,0
157050,-0.340985685586929,0
157160,-0.341399997472763,0
157270,-0.34160715341568,0
157370,-0.341192841529846,0
157480,-0.340985685586929,0
157590,-0.340364187955856,0
157700,-0.339949876070023,0
157810,-0.34305727481842,0
157920,-0.340985685586929,0
158030,-0.340985685586929,0
158140,-0.340985685586929,0
158250,-0.340571343898773,0
158360,-0.341192841529846,0
158470,-0.34077849984169,0
158580,-0.342021465301514,0
158690,-0.340571343898773,0
158790,-0.340985685586929,0
158900,-0.341192841529846,0
159010,-0.34077849984169,0
159120,-0.340985685586929,0
159230,-0.340571343898773,0
159340,-0.340571343898773,0
159450,-0.341814309358597,0
159560,-0.342021465301514,0
159670,-0.341399997472763,0
159780,-0.341399997472763,0
159890,-0.341399997472763,0
160000,-0.340985685586929,0
160100,-0.34077849984169,0
160210,-0.339535564184189,0
160320,-0.341192841529846,0
160430,-0.339742720127106,0
160540,-0.34160715341568,0
160650,-0.340364187955856,0
160760,-0.341814309358597,0
160870,-0.341399997472763,0
160980,-0.341399997472763,0
161090,-0.341192841529846,0
161200,-0.341814309358597,0
161310,-0.340985685586929,0
161420,-0.341192841529846,0
161520,-0.34077849984169,0
161630,-0.340571343898773,0
161740,-0.34077849984169,0
161850,-0.34077849984169,0
161960,-0.340571343898773,0
162070,-0.34077849984169,0
162180,-0.340571343898773,0
162290,-0.340571343898773,0
162400,-0.34305727481842,0
162510,-0.341399997472763,0
162620,-0.340985685586929,0
162730,-0.339535564184189,0
162830,-0.340571343898773,0
162940,-0.342021465301514,0
163050,-0.341399997472763,0
163160,-0.340985685586929,0
163270,-0.34160715341568,0
163380,-0.34077849984169,0
163490,-0.340157032012939,0
163600,-0.340985685586929,0
163710,-0.34160715341568,0
163820,-0.340571343898773,0
163930,-0.340157032012939,0
164040,-0.341814309358597,0
164150,-0.341192841529846,0
164250,-0.34077849984169,0
164360,-0.340985685586929,0
164470,-0.340985685586929,0
164580,-0.341192841529846,0
164690,-0.342228621244431,0
164800,-0.341192841529846,0
164910,-0.340985685586929,0
165020,-0.34243580698967,0
165130,-0.341399997472763,0
165240,-0.341192841529846,0
165350,-0.34160715341568,0
165460,-0.341399997472763,0
165560,-0.341192841529846,0
165670,-0.342021465301514,0
165780,-0.340571343898773,0
165890,-0.34077849984169,0
166000,-0.340571343898773,0
166110,-0.340985685586929,0
166220,-0.34077849984169,0
166330,-0.342021465301514,0
166440,-0.341399997472763,0
166550,-0.341192841529846,0
166660,-0.340985685586929,0
166770,-0.34243580698967,0
166880,-0.341814309358597,0
166980,-0.340985685586929,0
167090,-0.340157032012939,0
167200,-0.341192841529846,0
167310,-0.340571343898773,0
167420,-0.341192841529846,0
167530,-0.341192841529846,0
167640,-0.340571343898773,0
167750,-0.342642962932587,0
167860,-0.34243580698967,0
167970,-0.341192841529846,0
168080,-0.340571343898773,0
168190,-0.34077849984169,0
168290,-0.341399997472763,0
168400,-0.34077849984169,0
168510,-0.341399997472763,0
168620,-0.342021465301514,0
168730,-0.341399997472763,0
168840,-0.341192841529846,0
168950,-0.340364187955856,0
169060,-0.341814309358597,0
169170,-0.341192841529846,0
169280,-0.341814309358597,0
169390,-0.34077849984169,0
169500,-0.34243580698967,0
169610,-0.34160715341568,0
169710,-0.339742720127106,0
169820,-0.340364187955856,0
169930,-0.341192841529846,0
170040,-0.342021465301514,0
170150,-0.34077849984169,0
170260,-0.341814309358597,0
170370,-0.340985685586929,0
170480,-0.34160715341568,0
170590,-0.340157032012939,0
170700,-0.340985685586929,0
170810,-0.341399997472763,0
170920,-0.340364187955856,0
171020,-0.34160715341568,0
171130,-0.340985685586929,0
171240,-0.341814309358597,0
171350,-0.339742720127106,0
171460,-0.339949876070023,0
171570,-0.341192841529846,0
171680,-0.340571343898773,0
171790,-0.34077849984169,0
171900,-0.341814309358597,0
172010,-0.340364187955856,0
172120,-0.341399997472763,0
172230,-0.34077849984169,0
172340,-0.339949876070023,0
172440,-0.340364187955856,0
172550,-0.34160715341568,0
172660,-0.340985685586929,0
172770,-0.340571343898773,0
172880,-0.341399997472763,0
172990,-0.34077849984169,0
173100,-0.341814309358597,0
173210,-0.340985685586929,0
173320,-0.340364187955856,0
173430,-0.340985685586929,0
173540,-0.341399997472763,0
173650,-0.340571343898773,0
173750,-0.340571343898773,0
173860,-0.34243580698967,0
173970,-0.34077849984169,0
174080,-0.341814309358597,0
174190,-0.34243580698967,0
174300,-0.34077849984169,0
174410,-0.340985685586929,0
174520,-0.341399997472763,0
174630,-0.341192841529846,0
174740,-0.340985685586929,0
174850,-0.340985685586929,0
174960,-0.34243580698967,0
175070,-0.34160715341568,0
175170,-0.34077849984169,0
175280,-0.342228621244431,0
175390,-0.341814309358597,0
175500,-0.34160715341568,0
175610,-0.34160715341568,0
175720,-0.342228621244431,0
175830,-0.340985685586929,0
175940,-0.341192841529846,0
176050,-0.340364187955856,0
176160,-0.341192841529846,0
176270,-0.34077849984169,0
176380,-0.341192841529846,0
176480,-0.34160715341568,0
176590,-0.34077849984169,0
176700,-0.341192841529846,0
176810,-0.34160715341568,0
176920,-0.340157032012939,0
177030,-0.34160715341568,0
177140,-0.341399997472763,0
177250,-0.34160715341568,0
177360,-0.34077849984169,0
177470,-0.34243580698967,0
177580,-0.341192841529846,0
177690,-0.340985685586929,0
177800,-0.340571343898773,0
177900,-0.341814309358597,0
178010,-0.340571343898773,0
178120,-0.341814309358597,0
178230,-0.34160715341568,0
178340,-0.340985685586929,0
178450,-0.341814309358597,0
178560,-0.34077849984169,0
178670,-0.34077849984169,0
178780,-0.34077849984169,0
178890,-0.341814309358597,0
179000,-0.340571343898773,0
179110,-0.339535564184189,0
179220,-0.34243580698967,0
179320,-0.34160715341568,0
179430,-0.341814309358597,0
179540,-0.340985685586929,0
179650,-0.34243580698967,0
179760,-0.34160715341568,0
179870,-0.342642962932587,0
179980,-0.342021465301514,0
180090,-0.341192841529846,0
180200,-0.34243580698967,0
180310,-0.340364187955856,0
180420,-0.342021465301514,0
180530,-0.342642962932587,0
180630,-0.340364187955856,0
180740,-0.341192841529846,0
180850,-0.341814309358597,0
180960,-0.340571343898773,0
181070,-0.34077849984169,0
181180,-0.342021465301514,0
181290,-0.341399997472763,0
181400,-0.34160715341568,0
181510,-0.341399997472763,0
181620,-0.34305727481842,0
181730,-0.34077849984169,0
181840,-0.34243580698967,0
181950,-0.34160715341568,0
182050,-0.341399997472763,0
182160,-0.341399997472763,0
182270,-0.339742720127106,0
182380,-0.341192841529846,0
182490,-0.341192841529846,0
182600,-0.340571343898773,0
182710,-0.341192841529846,0
182820,-0.341399997472763,0
182930,-0.34160715341568,0
183040,-0.341399997472763,0
183150,-0.342850118875504,0
183260,-0.34160715341568,0
183360,-0.340985685586929,0
183470,-0.340985685586929,0
183580,-0.340985685586929,0
183690,-0.34077849984169,0
183800,-0.339742720127106,0
183910,-0.341192841529846,0
184020,-0.341814309358597,0
184130,-0.340157032012939,0
184240,-0.341399997472763,0
184350,-0.340985685586929,0
184460,-0.34077849984169,0
184570,-0.34077849984169,0
184680,-0.341399997472763,0
184780,-0.342228621244431,0
184890,-0.340571343898773,0
185000,-0.341192841529846,0
185110,-0.340157032012939,0
185220,-0.34160715341568,0
185330,-0.341192841529846,0
185440,-0.341192841529846,0
185550,-0.342228621244431,0
185660,-0.342228621244431,0
185770,-0.34077849984169,0
185880,-0.341192841529846,0
185990,-0.341399997472763,0
186090,-0.341399997472763,0
186200,-0.340571343898773,0
186310,-0.341399997472763,0
186420,-0.342850118875504,0
186530,-0.340985685586929,0
186640,-0.34160715341568,0
186750,-0.340364187955856,0
186860,-0.340364187955856,0
186970,-0.340985685586929,0
187080,-0.34160715341568,0
187190,-0.341399997472763,0
187300,-0.341192841529846,0
187410,-0.34077849984169,0
187510,-0.34077849984169,0
187620,-0.342021465301514,0
187730,-0.340985685586929,0
187840,-0.340157032012939,0
187950,-0.340985685586929,0
188060,-0.340571343898773,0
188170,-0.34160715341568,0
188280,-0.341192841529846,0
188390,-0.341192841529846,0
188500,-0.34160715341568,0
188610,-0.340985685586929,0
188720,-0.340571343898773,0
188820,-0.340157032012939,0
188930,-0.34077849984169,0
189040,-0.341192841529846,0
189150,-0.340364187955856,0
189260,-0.341399997472763,0
189370,-0.340571343898773,0
189480,-0.340985685586929,0
189590,-0.341814309358597,0
189700,-0.34077849984169,0
189810,-0.340364187955856,0
189920,-0.340364187955856,0
190030,-0.340985685586929,0
190140,-0.341399997472763,0
190240,-0.340364187955856,0
190350,-0.340157032012939,0
190460,-0.34077849984169,0
190570,-0.341399997472763,0
190680,-0.340364187955856,0
190790,-0.341399997472763,0
190900,-0.341192841529846,0
191010,-0.341192841529846,0
191120,-0.340985685586929,0
191230,-0.340571343898773,0
191340,-0.342021465301514,0
191450,-0.342228621244431,0
191550,-0.34077849984169,0
191660,-0.342228621244431,0
191770,-0.342021465301514,0
191880,-0.339949876070023,0
191990,-0.340571343898773,0
192100,-0.34077849984169,0
192210,-0.34077849984169,0
192320,-0.342021465301514,0
192430,-0.341192841529846,0
192540,-0.341192841529846,0
192650,-0.340571343898773,0
192760,-0.339949876070023,0
192870,-0.34077849984169,0
192970,-0.340985685586929,0
193080,-0.341399997472763,0
193190,-0.340364187955856,0
193300,-0.340985685586929,0
193410,-0.341192841529846,0
193520,-0.34160715341568,0
193630,-0.340364187955856,0
193740,-0.341399997472763,0
193850,-0.34160715341568,0
193960,-0.340571343898773,0
194070,-0.341814309358597,0
194180,-0.340985685586929,0
194280,-0.341814309358597,0
194390,-0.341399997472763,0
194500,-0.340571343898773,0
194610,-0.341399997472763,0
194720,-0.34077849984169,0
194830,-0.340985685586929,0
194940,-0.340571343898773,0
195050,-0.34077849984169,0
195160,-0.34077849984169,0
195270,-0.340364187955856,0
195380,-0.341399997472763,0
195490,-0.340571343898773,0
195600,-0.341192841529846,0
195700,-0.340571343898773,0
195810,-0.34077849984169,0
195920,-0.34077849984169,0
196030,-0.341192841529846,0
196140,-0.340364187955856,0
196250,-0.34077849984169,0
196360,-0.341399997472763,0
196470,-0.342021465301514,0
196580,-0.340571343898773,0
196690,-0.341192841529846,0
196800,-0.341399997472763,0
196910,-0.34077849984169,0
197010,-0.341814309358597,0
197120,-0.341192841529846,0
197230,-0.341192841529846,0
197340,-0.340985685586929,0
197450,-0.340571343898773,0
197560,-0.342228621244431,0
197670,-0.340364187955856,0
197780,-0.342021465301514,0
197890,-0.34160715341568,0
198000,-0.340157032012939,0
198110,-0.340364187955856,0
198220,-0.341399997472763,0
198330,-0.341814309358597,0
198430,-0.34160715341568,0
198540,-0.341814309358597,0
198650,-0.34160715341568,0
198760,-0.341399997472763,0
198870,-0.340571343898773,0
198980,-0.340157032012939,0
199090,-0.34077849984169,0
199200,-0.340985685586929,0
199310,-0.340364187955856,0
199420,-0.341399997472763,0
199530,-0.341399997472763,0
199640,-0.34160715341568,0
199740,-0.340985685586929,0
199850,-0.341814309358597,0
199960,-0.340985685586929,0
200070,-0.340157032012939,0
200180,-0.340571343898773,0
200290,-0.340571343898773,0
200400,-0.340364187955856,0
200510,-0.34077849984169,0
200620,-0.341399997472763,0
200730,-0.342228621244431,0
200840,-0.342642962932587,0
200950,-0.341192841529846,0
201060,-0.340571343898773,0
201160,-0.341814309358597,0
201270,-0.34077849984169,0
201380,-0.34077849984169,0
201490,-0.340157032012939,0
201600,-0.340364187955856,0
201710,-0.341399997472763,0
201820,-0.34077849984169,0
201930,-0.342228621244431,0
202040,-0.341814309358597,0
202150,-0.341399997472763,0
202260,-0.34160715341568,0
202370,-0.341399997472763,0
202470,-0.34160715341568,0
202580,-0.340571343898773,0
202690,-0.34160715341568,0
202800,-0.341192841529846,0
202910,-0.341399997472763,0
203020,-0.340364187955856,0
203130,-0.34077849984169,0
203240,-0.341399997472763,0
203350,-0.341399997472763,0
203460,-0.341399997472763,0
203570,-0.341814309358597,100
203680,-0.341192841529846,100
203790,-0.34160715341568,100
203890,-0.340157032012939,43.3593258285529
204000,-0.341399997472763,43.1640168407992
204110,-0.340571343898773,43.5546488652916
204220,-0.34160715341568,42.9687078530454
204330,-0.341814309358597,42.1874578530454
204440,-0.342228621244431,53.2029215699673
204550,-0.340157032012939,53.6716760656587
204660,-0.340985685586929,53.4372931981988
204770,-0.342642962932587,60.8074914732539
204880,-0.341192841529846,60.8074914732539
204990,-0.341192841529846,60.8074914732539
205100,-0.341399997472763,60.6772862618985
205200,-0.342021465301514,60.2215586562208
205310,-0.34160715341568,60.3517638675762
205420,-0.341192841529846,60.6772768959647
205530,-0.34160715341568,60.4168571073201
205640,-0.342228621244431,60.4168571073201
205750,-0.340364187955856,60.9376873186755
205860,-0.340571343898773,60.7423795016424
205970,-0.341192841529846,60.5470623186755
206080,-0.34077849984169,60.5470623186755
206190,-0.34160715341568,60.2866425300309
206300,-0.340364187955856,60.8074727413863
206410,-0.340985685586929,60.872575347064
206520,-0.340985685586929,60.9376779527417
206620,-0.340985685586929,60.8074633754526
206730,-0.341399997472763,60.3517357697749
206840,-0.340985685586929,60.2866237981634
206950,-0.341192841529846,60.2215211924857
207060,-0.340985685586929,60.3517264038411
207170,-0.342021465301514,59.8308961924857
207280,-0.34077849984169,59.8960081640972
207390,-0.342021465301514,59.6355977413863
207500,-0.341192841529846,59.7658029527417
207610,-0.34077849984169,59.6355977413863
207720,-0.340157032012939,60.0262227413863
207830,-0.341814309358597,59.9611201357086
207930,-0.34243580698967,59.3751779527417
208040,-0.341192841529846,59.5704857697749
208150,-0.341192841529846,59.5053831640972
208260,-0.340985685586929,59.765793586808
208370,-0.340364187955856,60.0913159811303
208480,-0.340364187955856,60.156418586808
208590,-0.341192841529846,60.2215211924857
208700,-0.341192841529846,60.0913066151965
208810,-0.34160715341568,59.8959987981634
208920,-0.339742720127106,51.5628130908586
209030,-0.34077849984169,51.5628130908586
209140,-0.340364187955856,51.6744179400099
209250,-0.34160715341568,51.3395953645855
209350,-0.340985685586929,51.4512002137367
209460,-0.341192841529846,51.2837849120391
209570,-0.341814309358597,51.1163776383123
209680,-0.341814309358597,50.7815550628879
209790,-0.34077849984169,50.7815550628879
209900,-0.340364187955856,50.8931599120391
210010,-0.341814309358597,50.7257526383123
210120,-0.341399997472763,50.4467324874635
210230,-0.34077849984169,50.4467324874635
210340,-0.340985685586929,50.5583373366147
210450,-0.342228621244431,50.5025349120391
210560,-0.341192841529846,50.3351196103416
210660,-0.340985685586929,50.3909220349172
210770,-0.340157032012939,50.7257446103416
210880,-0.340985685586929,50.6699341577952
210990,-0.341399997472763,50.7815390069464
211100,-0.342228621244431,50.5025268840684
211210,-0.340985685586929,50.558329308644
211320,-0.34077849984169,50.6141397611903
211430,-0.342021465301514,50.2235147611903
211540,-0.341192841529846,50.5025268840684
211650,-0.340571343898773,50.4467244594928
211760,-0.341192841529846,50.6699341577952
211870,-0.342021465301514,50.558329308644
211980,-0.34160715341568,50.167704308644
212080,-0.340364187955856,50.167704308644
212190,-0.341399997472763,50.167704308644
212300,-0.341192841529846,50.3351115823708
212410,-0.340985685586929,50.5025188560977
212520,-0.34160715341568,50.5583212806733
212630,-0.341814309358597,50.5025188560977
212740,-0.341399997472763,50.5025188560977
212850,-0.341192841529846,50.3351035544001
212960,-0.341814309358597,49.8886761298245
213070,-0.34243580698967,49.4422406772781
213180,-0.340364187955856,49.6096559789757
213290,-0.340364187955856,49.6096559789757
213390,-0.339949876070023,50.0002809789757
213500,-0.339949876070023,50.3909059789757
213620,-0.341399997472763,50.4467084035513
213720,-0.342021465301514,50.1676962806733
213830,-0.34243580698967,50.0002809789757
213940,-0.34160715341568,49.8328737052489
214050,-0.341814309358597,49.3864462806733
214160,-0.341192841529846,49.2190309789757
214270,-0.34160715341568,48.9400108281269
214380,-0.342021465301514,48.4935834035513
214490,-0.341814309358597,48.2145632527025
214600,-0.340985685586929,48.3261681018538
214710,-0.34077849984169,48.7167931018538
214810,-0.340571343898773,49.2748334035513
214920,-0.341192841529846,49.2748334035513
215030,-0.341399997472763,49.0516156772781
215140,-0.341192841529846,49.219022951005
215250,-0.341192841529846,49.107410073883
215360,-0.341814309358597,48.8283899230342
215470,-0.339742720127106,48.9399947721855
215580,-0.340364187955856,48.9399947721855
215690,-0.34160715341568,48.8841923476098
215800,-0.341192841529846,48.7725794704879
215910,-0.341192841529846,49.0515915933659
216020,-0.340571343898773,49.3864141687903
216120,-0.341192841529846,49.4422165933659
216230,-0.341192841529846,49.5538214425172
216340,-0.34160715341568,49.4980190179416
216450,-0.341399997472763,49.5538214425172
216560,-0.341814309358597,49.2189988670928
216670,-0.339742720127106,49.721228716244
216780,-0.342021465301514,49.4980190179416
216890,-0.341399997472763,49.4980190179416
217000,-0.340157032012939,49.5538214425172
217110,-0.340157032012939,49.721228716244
217220,-0.339742720127106,50.1676561408196
217330,-0.342228621244431,49.9444464425172
217440,-0.34160715341568,49.8886440179416
217540,-0.341814309358597,49.8886440179416
217650,-0.340364187955856,50.1118617442147
217760,-0.342228621244431,49.9444544704879
217870,-0.34077849984169,49.7770471967611
217980,-0.341399997472763,49.7770471967611
218090,-0.341399997472763,49.5538294704879
218200,-0.342228621244431,49.3864221967611
218310,-0.341399997472763,49.4980270459123
218420,-0.34160715341568,49.6654343196391
218530,-0.340985685586929,49.4422165933659
218640,-0.340157032012939,49.6654343196391
218750,-0.340364187955856,50.2792770459123
218850,-0.341192841529846,50.2792770459123
218960,-0.341399997472763,50.2234746213367
219070,-0.340571343898773,50.4466923476098
219180,-0.340157032012939,50.9489221967611
219290,-0.341399997472763,51.0047246213367
219400,-0.340985685586929,51.0605270459123
219510,-0.341192841529846,51.1721318950635
219620,-0.341399997472763,51.3953415933659
219730,-0.340364187955856,51.3953415933659
219840,-0.342021465301514,51.0047165933659
219950,-0.340571343898773,51.1721318950635
220060,-0.341192841529846,51.0605190179416
220170,-0.340985685586929,51.2279262916684
220270,-0.342021465301514,50.7814988670928
220380,-0.34160715341568,50.6140915933659
220490,-0.340364187955856,50.7815068950635
220600,-0.341192841529846,50.7257044704879
220710,-0.341399997472763,50.7257044704879
220820,-0.341192841529846,50.6699020459123
220930,-0.341814309358597,50.5024947721855
221040,-0.341192841529846,50.4466923476098
221150,-0.342228621244431,50.3908899230342
221260,-0.341192841529846,50.2792770459123
221370,-0.340571343898773,50.6699020459123
221480,-0.340571343898773,50.8373173476098
221580,-0.339949876070023,51.0605270459123
221690,-0.34160715341568,50.6699020459123
221800,-0.340364187955856,51.0605270459123
221910,-0.34160715341568,51.2837447721855
222020,-0.340571343898773,51.451160073883
222130,-0.340571343898773,51.6185753755806
222240,-0.34160715341568,51.4511681018538
222350,-0.341814309358597,51.0605431018538
222460,-0.341192841529846,50.8373253755806
222570,-0.34077849984169,50.9489382527025
222680,-0.341192841529846,50.9489382527025
222790,-0.34243580698967,50.7257205264294
222900,-0.340571343898773,50.5025108281269
223000,-0.339949876070023,50.7257205264294
223110,-0.341399997472763,50.4467003755806
223220,-0.340157032012939,50.8373253755806
223330,-0.341192841529846,50.781522951005
223440,-0.34160715341568,50.6699181018538
223550,-0.34160715341568,50.7257205264294
223660,-0.340571343898773,51.0605431018538
223770,-0.341399997472763,50.8931278001562
223880,-0.341399997472763,50.6141076493074
223990,-0.341192841529846,50.7815149230342
224100,-0.341814309358597,50.669910073883
224210,-0.341192841529846,50.5582971967611
224310,-0.340985685586929,50.5582971967611
224420,-0.341399997472763,50.7815068950635
224530,-0.341399997472763,50.7257044704879
224640,-0.340985685586929,50.7257044704879
224750,-0.341192841529846,50.4466843196391
224860,-0.341814309358597,50.2234746213367
224970,-0.342642962932587,49.8886520459123
225080,-0.341192841529846,50.1676641687903
225190,-0.341399997472763,50.0560593196391
225300,-0.341192841529846,49.9444464425172
225410,-0.34160715341568,50.0560512916684
225520,-0.341192841529846,50.0560512916684
225630,-0.341399997472763,49.8328335653952
225730,-0.341814309358597,49.6654262916684
225840,-0.34160715341568,49.7770311408196
225950,-0.34160715341568,49.7770311408196
226060,-0.34160715341568,49.4422085653952
226170,-0.339742720127106,49.8886359899708
226280,-0.342021465301514,49.6654262916684
226390,-0.342021465301514,49.3864141687903
226500,-0.340985685586929,49.5538214425172
226610,-0.340985685586929,49.7770311408196
226720,-0.341192841529846,49.8328335653952
226830,-0.34160715341568,49.721228716244
226940,-0.341192841529846,49.8886359899708
227040,-0.341399997472763,50.1676561408196
227150,-0.342021465301514,49.721228716244
227260,-0.341399997472763,49.4422085653952
227370,-0.34077849984169,49.2189988670928
227480,-0.342228621244431,48.6051641687903
227590,-0.342021465301514,48.4377568950635
227700,-0.34160715341568,48.5493617442147
227810,-0.341399997472763,48.8283818950635
227920,-0.341399997472763,48.8841843196391
228030,-0.341814309358597,48.8841843196391
228140,-0.342021465301514,48.6609746213367
228250,-0.342021465301514,48.5493697721855
228360,-0.341814309358597,48.6051721967611
228460,-0.340985685586929,48.8283818950635
228570,-0.341399997472763,48.7167770459123
228680,-0.342021465301514,48.3819544704879
228790,-0.341814309358597,48.0471318950635
228900,-0.342021465301514,47.8239221967611
229010,-0.34243580698967,47.5449020459123
229120,-0.34077849984169,47.6565149230342
229230,-0.341192841529846,47.6565149230342
229340,-0.341192841529846,47.8239221967611
229450,-0.340985685586929,47.4890996213367
229560,-0.340571343898773,47.4332971967611
229670,-0.340364187955856,47.7681197721855
229770,-0.341814309358597,47.6007124984586
229880,-0.34243580698967,47.2658899230342
229990,-0.34160715341568,46.9868697721855
230100,-0.340364187955856,47.2100874984586
230210,-0.340985685586929,47.2658899230342
230320,-0.341192841529846,47.3774947721855
230430,-0.340364187955856,47.6565149230342
230540,-0.34160715341568,47.7123173476098
230650,-0.341399997472763,47.2658899230342
230760,-0.341192841529846,47.4890996213367
230870,-0.340364187955856,47.7681197721855
230980,-0.34077849984169,47.6007124984586
231090,-0.34160715341568,47.2100874984586
231190,-0.341399997472763,46.763660073883
231300,-0.341399997472763,46.9868697721855
231410,-0.341814309358597,46.9310673476098
231520,-0.342021465301514,46.8752649230342
231630,-0.341192841529846,46.6520471967611
231740,-0.341814309358597,46.7636520459123
231850,-0.340985685586929,46.7078415933659
231960,-0.34160715341568,46.6520391687903
232070,-0.341814309358597,46.5404343196391
232180,-0.341192841529846,46.8194464425172
232290,-0.34160715341568,46.7636440179416
232400,-0.341192841529846,46.8752488670928
232500,-0.34077849984169,46.9310593196391
232610,-0.340985685586929,46.7078415933659
232720,-0.341399997472763,46.4288214425172
232830,-0.341192841529846,46.4288214425172
232940,-0.342228621244431,46.2056117442147
233050,-0.340571343898773,46.2056117442147
233160,-0.34160715341568,45.8149867442147
233270,-0.34160715341568,45.7591843196391
233380,-0.342021465301514,45.4801721967611
233490,-0.340985685586929,45.5359746213367
233600,-0.34160715341568,45.4801721967611
233710,-0.34243580698967,44.9221318950635
233820,-0.34077849984169,45.2569544704879
233920,-0.341814309358597,44.9221318950635
234030,-0.341192841529846,44.9221318950635
234140,-0.342228621244431,44.5873173476098
234250,-0.34160715341568,44.6989221967611
234360,-0.34160715341568,44.6989221967611
234470,-0.341192841529846,44.4757044704879
234580,-0.340571343898773,44.6431197721855
234690,-0.341814309358597,44.5315149230342
234800,-0.34160715341568,44.419910073883
234910,-0.342021465301514,44.3641076493074
235020,-0.342021465301514,44.140897951005
235130,-0.34077849984169,44.531522951005
235230,-0.341192841529846,44.531522951005
235340,-0.341399997472763,44.3083052247318
235450,-0.340985685586929,44.1966923476098
235560,-0.34077849984169,43.9734826493074
235670,-0.341192841529846,44.0850874984586
235780,-0.34160715341568,43.7502649230342
235890,-0.342228621244431,43.5828576493074
236000,-0.34077849984169,43.5270552247318
236110,-0.34077849984169,43.4712528001562
236220,-0.341192841529846,43.5828576493074
236330,-0.340985685586929,43.8060673476098
236440,-0.340571343898773,43.9734826493074
236550,-0.342850118875504,43.4154423476098
236650,-0.341814309358597,43.248035073883
236760,-0.34077849984169,43.6944705264294
236870,-0.340364187955856,43.750272951005
236980,-0.342642962932587,43.0248253755806
237090,-0.34077849984169,43.1922406772781
237200,-0.340364187955856,43.1364382527025
237310,-0.341192841529846,43.1364382527025
237420,-0.342021465301514,43.0248334035513
237530,-0.34160715341568,43.0248334035513
237640,-0.341399997472763,42.8016156772781
237750,-0.34160715341568,42.7458132527025
237860,-0.340985685586929,42.8574181018538
237960,-0.341399997472763,42.8016156772781
238070,-0.34160715341568,42.8574181018538
238180,-0.341814309358597,42.6900108281269
238290,-0.342850118875504,42.1877809789757
238400,-0.341814309358597,42.0761761298245
238510,-0.34077849984169,42.2435914315221
238620,-0.341192841529846,42.1877890069464
238730,-0.341814309358597,42.0203817332196
238840,-0.342021465301514,41.964579308644
238950,-0.340985685586929,42.4110067332196
239060,-0.342228621244431,42.1319946103416
239170,-0.341399997472763,42.1319946103416
239280,-0.34077849984169,42.2436074874635
239380,-0.341399997472763,42.2994099120391
239490,-0.34077849984169,42.4110227891611
239600,-0.34160715341568,42.3552203645855
239710,-0.339742720127106,42.9132526383123
239820,-0.34160715341568,42.9132526383123
239930,-0.341192841529846,43.0248574874635
240040,-0.342021465301514,42.9132526383123
240150,-0.34077849984169,42.6342405154343
240260,-0.341814309358597,42.6900429400099
240370,-0.340364187955856,43.1364703645855
240480,-0.341814309358597,42.913260666283
240590,-0.34160715341568,42.7458533925562
240690,-0.34160715341568,42.634248543405
240800,-0.34077849984169,42.8574662696782
240910,-0.342642962932587,42.4668412696782
241020,-0.34160715341568,42.4110388451026
241130,-0.340985685586929,42.6900509679806
241240,-0.340364187955856,42.9690711188294
241350,-0.34077849984169,42.9690711188294
241460,-0.34077849984169,43.3596961188294
241570,-0.34160715341568,43.4713009679806
241680,-0.34160715341568,43.4713009679806
241790,-0.342850118875504,43.0806759679806
241900,-0.341399997472763,43.0806759679806
242010,-0.341399997472763,43.1922808171318
242110,-0.341399997472763,43.3596880908586
242220,-0.34077849984169,43.694510666283
242340,-0.341192841529846,43.8619179400099
242440,-0.342228621244431,43.5271033925562
242550,-0.340571343898773,43.7503211188294
242660,-0.341192841529846,43.9735308171318
242770,-0.34243580698967,43.8061155154343
242880,-0.340364187955856,44.2525429400099
242990,-0.340571343898773,44.7547808171318
243100,-0.341192841529846,44.6431679400099
243210,-0.341399997472763,44.5873655154343
243320,-0.34160715341568,44.475760666283
243420,-0.34160715341568,44.3083533925562
243530,-0.34077849984169,44.2525509679806
243640,-0.341399997472763,43.9735308171318
243750,-0.341399997472763,44.085135666283
243860,-0.341399997472763,44.3641558171318
243970,-0.34077849984169,44.587373543405
244080,-0.341399997472763,44.3083533925562
244190,-0.341399997472763,44.196748543405
244300,-0.341399997472763,44.1409461188294
244420,-0.342021465301514,43.6945186942538
244520,-0.341192841529846,43.806123543405
244630,-0.339742720127106,44.2525509679806
244740,-0.34077849984169,44.3641638451026
244840,-0.339949876070023,44.4757686942538
244950,-0.34160715341568,44.2525509679806
245060,-0.341399997472763,44.3083533925562
245170,-0.341192841529846,44.3641558171318
245280,-0.34077849984169,44.5315711188294
245390,-0.34160715341568,44.587373543405
245500,-0.340364187955856,45.0338009679806
245610,-0.34160715341568,44.9221961188294
245720,-0.34077849984169,45.2012162696782
245830,-0.341192841529846,45.1454138451026
245940,-0.339949876070023,45.5918412696782
246050,-0.342021465301514,45.5360388451026
246150,-0.341814309358597,45.3686315713757
246260,-0.34077849984169,45.5918492976489
246370,-0.340985685586929,45.6476517222245
246480,-0.340571343898773,45.7034541468001
246590,-0.341399997472763,45.5918492976489
246700,-0.340571343898773,45.8150670239221
246810,-0.341192841529846,45.8150670239221
246920,-0.342228621244431,45.8150670239221
247030,-0.341192841529846,45.6476517222245
247140,-0.341192841529846,45.7592565713757
247250,-0.342021465301514,45.6476517222245
247360,-0.34077849984169,45.9824742976489
247470,-0.340985685586929,45.9824742976489
247570,-0.340985685586929,46.1498815713757
247680,-0.340985685586929,46.5405065713757
247790,-0.34077849984169,46.5405065713757
247900,-0.34160715341568,46.5963089959513
248010,-0.340985685586929,46.6521114205269
248120,-0.341814309358597,46.7637162696782
248230,-0.340985685586929,46.931123543405
248340,-0.341399997472763,46.9869259679806
248450,-0.341814309358597,46.8195186942538
248560,-0.34160715341568,46.540498543405
248670,-0.340985685586929,46.7637082417074
248780,-0.34077849984169,46.9869259679806
248880,-0.34160715341568,47.0985308171318
248990,-0.341814309358597,47.1543332417074
249100,-0.342021465301514,46.819510666283
249210,-0.340571343898773,46.9869259679806
249320,-0.342850118875504,46.5963009679806
249430,-0.340571343898773,46.7079138451026
249540,-0.34077849984169,46.7079138451026
249650,-0.340571343898773,46.8753291468001
249760,-0.341814309358597,46.8195267222245
249870,-0.341814309358597,46.9311315713757
249980,-0.34243580698967,46.4846961188294
250090,-0.341814309358597,46.2056759679806
250200,-0.341192841529846,46.2056759679806
250300,-0.341814309358597,45.9824662696782
250410,-0.341814309358597,45.6476436942538
250520,-0.34077849984169,46.2056839959513
250630,-0.341192841529846,46.3730912696782
250740,-0.341192841529846,46.2614783925562
250850,-0.341192841529846,46.038260666283
250960,-0.341192841529846,46.428885666283
251070,-0.340985685586929,46.3730752137367
251180,-0.341814309358597,45.9824502137367
251290,-0.342021465301514,45.7592405154343
251400,-0.341192841529846,45.9824502137367
251510,-0.340364187955856,46.3172727891611
251610,-0.340571343898773,46.5404905154343
251720,-0.340364187955856,46.8753130908586
251830,-0.341814309358597,46.6521033925562
251940,-0.342642962932587,46.3172808171318
252050,-0.342021465301514,46.2056759679806
252160,-0.341399997472763,46.3172808171318
252270,-0.34077849984169,46.8753211188294
252380,-0.341399997472763,46.9869259679806
252490,-0.34160715341568,46.7637082417074
252600,-0.34160715341568,46.6521033925562
252710,-0.34160715341568,46.7079058171318
252820,-0.34160715341568,46.819510666283
252930,-0.339949876070023,47.0985308171318
253030,-0.339535564184189,47.8239703645855
253140,-0.34077849984169,47.991385666283
253250,-0.34160715341568,47.7681679400099
253360,-0.34077849984169,47.9355832417074
253470,-0.34077849984169,47.9355832417074
253580,-0.34077849984169,48.1588009679806
253690,-0.341399997472763,47.712373543405
253800,-0.34077849984169,47.9355912696782
253910,-0.341192841529846,47.9355912696782
254020,-0.342228621244431,47.8797888451026
254130,-0.34077849984169,47.8797888451026
254240,-0.341399997472763,47.9913936942538
254340,-0.34077849984169,47.8797888451026
254450,-0.34243580698967,47.712373543405
254560,-0.341399997472763,47.7681759679806
254670,-0.340364187955856,48.102998543405
254780,-0.342021465301514,47.7681759679806
254890,-0.34160715341568,48.0471961188294
255000,-0.34160715341568,48.0471961188294
255110,-0.341814309358597,47.8239864205269
255220,-0.341814309358597,47.4333614205269
255330,-0.34243580698967,46.9869259679806
255440,-0.341399997472763,46.819510666283
255550,-0.341399997472763,46.8753130908586
255660,-0.340985685586929,47.0427203645855
255760,-0.340364187955856,47.7123655154343
255870,-0.341399997472763,47.7123655154343
255980,-0.341192841529846,47.7681679400099
256090,-0.341814309358597,47.6565630908586
256200,-0.341192841529846,47.5449502137367
256310,-0.340985685586929,47.6007526383123
256420,-0.340985685586929,47.935567185766
256530,-0.341192841529846,47.7681518840684
256640,-0.34243580698967,47.433329308644
256750,-0.342021465301514,47.544942185766
256860,-0.340985685586929,47.3775268840684
256970,-0.34160715341568,47.0985067332196
257070,-0.34160715341568,46.9869018840684
257180,-0.341192841529846,47.042704308644
257290,-0.341399997472763,47.0985067332196
257400,-0.341192841529846,47.2101115823708
257510,-0.34160715341568,46.9868938560977
257620,-0.342228621244431,46.7636841577952
257730,-0.341399997472763,46.7636841577952
257840,-0.341192841529846,46.8194865823708
257950,-0.343264430761337,46.1498414315221
258060,-0.340571343898773,46.3730591577952
258170,-0.340571343898773,46.5962768840684
258280,-0.341192841529846,46.652079308644
258390,-0.34160715341568,46.7636841577952
258490,-0.340985685586929,46.8194865823708
258600,-0.341814309358597,46.261454308644
258710,-0.342021465301514,45.9266317332196
258820,-0.34160715341568,45.480204308644
258930,-0.34160715341568,45.480204308644
259040,-0.342021465301514,45.3127970349172
259150,-0.34077849984169,45.4244099120391
259260,-0.340571343898773,45.4802123366147
259370,-0.34160715341568,45.4802123366147
259480,-0.341192841529846,45.2569946103416
259590,-0.341814309358597,45.201192185766
259700,-0.341399997472763,45.0337768840684
259810,-0.34243580698967,44.698954308644
259910,-0.34160715341568,44.2525268840684
260020,-0.340364187955856,44.698954308644
260130,-0.34077849984169,44.9779744594928
260240,-0.341192841529846,44.8663615823708
260350,-0.341192841529846,44.8105591577952
260460,-0.340571343898773,44.8105591577952
260570,-0.341399997472763,44.8105591577952
260680,-0.341814309358597,44.4757365823708
260790,-0.341399997472763,44.4199341577952
260900,-0.341399997472763,44.6431438560977
261010,-0.341192841529846,44.6431438560977
261120,-0.341399997472763,44.5873414315221
261220,-0.341814309358597,44.6431438560977
261330,-0.341814309358597,44.3641237052489
261440,-0.341814309358597,44.1409140069464
261550,-0.340985685586929,44.1409140069464
261660,-0.34077849984169,44.1967244594928
261770,-0.340571343898773,44.2525268840684
261880,-0.341399997472763,44.308329308644
261990,-0.34077849984169,44.3641397611903
262100,-0.342228621244431,44.2525349120391
262210,-0.34160715341568,44.0851276383123
262320,-0.340985685586929,44.1967324874635
262430,-0.34077849984169,44.4757526383123
262540,-0.341814309358597,44.4199502137367
262640,-0.34160715341568,44.2525429400099
262750,-0.341192841529846,44.1409300628879
262860,-0.341192841529846,44.2525349120391
262970,-0.34077849984169,44.5315550628879
263080,-0.341814309358597,44.5873574874635
263190,-0.340364187955856,44.6431599120391
263300,-0.341399997472763,45.0337849120391
263410,-0.34160715341568,44.7547647611903
263520,-0.340985685586929,44.698954308644
263630,-0.342021465301514,44.308329308644
263740,-0.34077849984169,44.5873494594928
263850,-0.341814309358597,44.5873494594928
263950,-0.342021465301514,44.6989623366147
264060,-0.342228621244431,44.5873574874635
264170,-0.341192841529846,44.5873574874635
264280,-0.341192841529846,44.7547647611903
264390,-0.342228621244431,44.6431599120391
264500,-0.341814309358597,44.3641397611903
264610,-0.340157032012939,44.6431599120391
264720,-0.341192841529846,44.6431599120391
264830,-0.340364187955856,44.8663776383123
264940,-0.340571343898773,45.0337929400099
265050,-0.340571343898773,45.1454058171318
265160,-0.341399997472763,45.257010666283
265270,-0.341814309358597,45.3128130908586
265370,-0.341399997472763,45.257010666283
265480,-0.34160715341568,44.9221880908586
265590,-0.34077849984169,44.866385666283
265700,-0.341814309358597,44.475760666283
265810,-0.342228621244431,44.3641558171318
265920,-0.341192841529846,44.7547808171318
266030,-0.340157032012939,45.257010666283
266140,-0.34160715341568,45.2012082417074
266250,-0.341814309358597,44.9221880908586
266360,-0.340985685586929,45.0337929400099
266470,-0.342021465301514,44.9221880908586
266580,-0.341192841529846,45.0337929400099
266680,-0.340364187955856,45.3686155154343
266790,-0.34077849984169,45.5918332417074
266900,-0.34243580698967,44.9221880908586
267010,-0.34077849984169,44.587373543405
267120,-0.340571343898773,44.6431759679806
267230,-0.34077849984169,44.8663936942538
267340,-0.341399997472763,44.6989783925562
267450,-0.342642962932587,44.1967405154343
267560,-0.341399997472763,44.0293252137367
267670,-0.34077849984169,44.1967405154343
267780,-0.341399997472763,44.0293252137367
267890,-0.34077849984169,44.1409380908586
268000,-0.34077849984169,44.5315630908586
268100,-0.340985685586929,44.4757526383123
268210,-0.34160715341568,44.4199502137367
268320,-0.340985685586929,44.3641397611903
268430,-0.341399997472763,44.6431599120391
268540,-0.340985685586929,44.7547647611903
268650,-0.341192841529846,44.5315470349172
268760,-0.34077849984169,44.8663696103416
268870,-0.341192841529846,44.9779744594928
268980,-0.342021465301514,44.8663696103416
269090,-0.342021465301514,44.810567185766
269200,-0.34243580698967,44.6431518840684
269310,-0.342021465301514,44.7547647611903
269410,-0.34077849984169,44.9221800628879
269520,-0.340985685586929,45.0337849120391
269630,-0.341399997472763,44.9221800628879
269740,-0.340157032012939,44.9779824874635
269850,-0.34160715341568,44.9221800628879
269960,-0.34160715341568,44.8105752137367
270070,-0.34160715341568,44.8663776383123
270180,-0.342021465301514,44.6431679400099
270290,-0.342228621244431,44.3083533925562
270400,-0.342021465301514,44.0293412696782
270510,-0.341399997472763,43.9735388451026
270620,-0.341192841529846,44.3083614205269
270730,-0.340571343898773,44.6989864205269
270830,-0.341814309358597,44.4757767222245
270940,-0.340364187955856,44.8105992976489
271050,-0.341192841529846,44.9222041468001
271160,-0.341192841529846,44.9222041468001
271270,-0.340985685586929,45.0338089959513
271380,-0.341192841529846,45.0338089959513
271490,-0.340571343898773,45.3128291468001
271600,-0.34160715341568,45.4802364205269
271710,-0.341814309358597,45.3686315713757
271820,-0.341192841529846,45.3686315713757
271930,-0.340985685586929,45.9824662696782
272040,-0.341192841529846,45.8150509679806
272140,-0.340985685586929,45.7034380908586
272250,-0.34077849984169,45.8150509679806
272360,-0.340571343898773,46.0940711188294
272470,-0.34160715341568,45.9266638451026
272580,-0.342228621244431,45.8150589959513
272690,-0.342021465301514,45.8150589959513
272800,-0.341814309358597,45.7592565713757
272910,-0.339949876070023,46.2056839959513
273020,-0.341192841529846,46.4288936942538
273130,-0.340571343898773,46.4846961188294
273240,-0.34160715341568,46.2056759679806
273350,-0.34160715341568,46.2056759679806
273460,-0.341814309358597,46.0382686942538
273560,-0.340985685586929,46.2614783925562
273670,-0.34160715341568,46.2056759679806
273780,-0.341192841529846,46.540498543405
273890,-0.341814309358597,46.4846961188294
274000,-0.34160715341568,46.149873543405
274110,-0.340364187955856,46.2614783925562
274220,-0.34077849984169,46.3730912696782
274330,-0.34077849984169,46.4847041468001
274440,-0.34160715341568,46.2056839959513
274550,-0.34077849984169,46.3730992976489
274660,-0.342021465301514,46.3172968730733
274770,-0.340985685586929,46.4289017222245
274870,-0.340985685586929,46.5405065713757
274980,-0.341814309358597,46.3730992976489
275090,-0.340364187955856,46.6521194484977
275200,-0.342228621244431,46.5405145993465
275310,-0.34160715341568,46.5963170239221
275420,-0.340985685586929,46.8195267222245
275530,-0.341192841529846,46.7637242976489
275640,-0.340985685586929,46.7079138451026
275750,-0.342021465301514,46.3172888451026
275860,-0.34077849984169,46.4847041468001
275970,-0.342021465301514,46.1498815713757
276080,-0.341399997472763,46.3730912696782
276190,-0.340571343898773,46.6521114205269
276290,-0.341192841529846,46.5963089959513
276400,-0.34160715341568,46.3730912696782
276510,-0.342021465301514,46.3172888451026
276620,-0.341399997472763,46.3730912696782
276730,-0.34160715341568,46.2614864205269
276840,-0.341192841529846,46.2614864205269
276950,-0.34160715341568,46.0382686942538
277060,-0.34160715341568,46.0940711188294
277170,-0.34160715341568,45.759248543405
277280,-0.342021465301514,45.5918412696782
277390,-0.341192841529846,45.7034461188294
277500,-0.342021465301514,45.4244339959513
277600,-0.341192841529846,45.6476436942538
277710,-0.341399997472763,45.4802283925562
277820,-0.342021465301514,45.4244259679806
277930,-0.341814309358597,45.4802283925562
278040,-0.341814309358597,45.5918332417074
278150,-0.341192841529846,45.5918332417074
278260,-0.340157032012939,45.8708533925562
278370,-0.340985685586929,46.2056679400099
278480,-0.34160715341568,46.2614703645855
278590,-0.340985685586929,46.0382526383123
278700,-0.34160715341568,45.9266477891611
278810,-0.341399997472763,45.6476276383123
278920,-0.341192841529846,45.4802123366147
279020,-0.340985685586929,45.3685994594928
279130,-0.342021465301514,45.201192185766
279240,-0.342228621244431,45.0895873366147
279350,-0.341192841529846,45.1453897611903
279460,-0.34160715341568,45.1453897611903
279570,-0.34077849984169,45.1453897611903
279680,-0.341399997472763,45.2569946103416
279790,-0.341192841529846,45.5360067332196
279900,-0.34077849984169,45.6476196103416
280010,-0.34160715341568,45.2569946103416
280120,-0.340985685586929,45.4244018840684
280230,-0.340985685586929,45.6476115823708
280330,-0.34077849984169,45.7034220349172
280440,-0.341814309358597,45.7592244594928
280550,-0.342228621244431,45.4802123366147
280660,-0.341192841529846,45.2569946103416
280770,-0.341399997472763,45.089579308644
280880,-0.34160715341568,45.3127970349172
280990,-0.340985685586929,45.2569865823708
281100,-0.341192841529846,45.0895712806733
281210,-0.342228621244431,44.6989462806733
281320,-0.340571343898773,44.9221640069464
281430,-0.340571343898773,45.480204308644
281540,-0.34160715341568,45.4244018840684
281650,-0.341192841529846,45.3127890069464
281750,-0.342021465301514,45.1453817332196
281860,-0.34243580698967,44.6989462806733
281970,-0.34077849984169,44.6989462806733
282080,-0.341814309358597,44.4757365823708
282190,-0.34077849984169,44.698954308644
282300,-0.34160715341568,44.5315470349172
282410,-0.341814309358597,44.419942185766
282520,-0.341399997472763,44.3083373366147
282630,-0.34160715341568,44.1967324874635
282740,-0.341399997472763,44.029317185766
282850,-0.341192841529846,44.029317185766
282960,-0.34160715341568,44.1409220349172
283060,-0.341399997472763,44.308329308644
283170,-0.341192841529846,44.6431518840684
283280,-0.34077849984169,44.9779744594928
283390,-0.341192841529846,44.8663615823708
283500,-0.341192841529846,44.8105591577952
283610,-0.340571343898773,45.0337768840684
283720,-0.34077849984169,44.8663696103416
283830,-0.341192841529846,44.9779744594928
283940,-0.341192841529846,45.089579308644
284050,-0.341192841529846,45.2011841577952
284160,-0.341192841529846,45.4243938560977
284270,-0.341192841529846,45.7034059789757
284380,-0.342021465301514,45.7034059789757
284480,-0.342228621244431,45.4801962806733
284590,-0.341814309358597,45.3127890069464
284700,-0.341399997472763,45.0895712806733
284810,-0.340364187955856,45.4801962806733
284920,-0.340985685586929,45.3127809789757
285030,-0.341814309358597,45.1453737052489
285140,-0.341399997472763,45.0895712806733
285250,-0.341399997472763,44.9779664315221
285360,-0.341192841529846,44.9779664315221
285470,-0.341192841529846,44.8105511298245
285580,-0.340985685586929,44.9779584035513
285690,-0.340157032012939,45.4243858281269
285790,-0.340985685586929,45.4801882527025
285900,-0.339949876070023,45.7592084035513
286010,-0.34160715341568,45.6476035544001
286120,-0.34160715341568,45.4801962806733
286230,-0.342228621244431,45.0895712806733
286340,-0.340571343898773,45.0895712806733
286450,-0.342228621244431,44.9221640069464
286560,-0.341399997472763,45.1453737052489
286670,-0.341192841529846,45.3685834035513
286780,-0.340985685586929,45.5917931018538
286890,-0.340364187955856,45.4801882527025
287000,-0.341814309358597,45.3127809789757
287110,-0.341192841529846,45.1453656772781
287210,-0.342021465301514,45.0337608281269
287320,-0.340571343898773,45.3127809789757
287430,-0.341192841529846,45.4801882527025
287540,-0.341814309358597,45.2569785544001
287650,-0.34077849984169,45.4801962806733
287760,-0.34077849984169,45.5918091577952
287870,-0.341814309358597,45.5918091577952
287980,-0.340985685586929,45.7592164315221
288090,-0.34243580698967,45.2011761298245
288200,-0.342021465301514,44.8663535544001
288310,-0.340985685586929,44.8105431018538
288420,-0.341399997472763,44.8663455264294
288520,-0.34160715341568,44.6431278001562
288630,-0.341399997472763,44.810535073883
288740,-0.34243580698967,44.419910073883
288850,-0.340985685586929,44.419910073883
288960,-0.341399997472763,44.5315149230342
289070,-0.34160715341568,44.1966923476098
289180,-0.342228621244431,44.1966923476098
289290,-0.34077849984169,44.419910073883
289400,-0.341399997472763,44.3083052247318
289510,-0.340571343898773,44.4757205264294
289620,-0.341192841529846,44.4199181018538
289730,-0.341192841529846,44.6431278001562
289840,-0.341814309358597,44.3641076493074
289940,-0.341192841529846,44.5873173476098
290050,-0.340571343898773,44.810535073883
290160,-0.34160715341568,44.5315149230342
290270,-0.340364187955856,44.7547326493074
290380,-0.34077849984169,44.9779503755806
290490,-0.340985685586929,45.2569624984586
290600,-0.341192841529846,45.3127649230342
290710,-0.340571343898773,45.591785073883
290820,-0.34243580698967,45.2569624984586
290930,-0.341192841529846,45.3685673476098
291040,-0.342228621244431,45.201160073883
291150,-0.340985685586929,45.3685673476098
291250,-0.340571343898773,45.7591923476098
291360,-0.341399997472763,45.7033899230342
291470,-0.34160715341568,45.8149947721855
291580,-0.340985685586929,45.8707971967611
291690,-0.34077849984169,46.0382124984586
291800,-0.341399997472763,46.2056197721855
291910,-0.341192841529846,46.3730270459123
292020,-0.341192841529846,46.5404343196391
292130,-0.34160715341568,46.4288294704879
292240,-0.340157032012939,46.4288294704879
292350,-0.341399997472763,46.3172246213367
292460,-0.342021465301514,46.2056197721855
292570,-0.34160715341568,46.0382124984586
292670,-0.342021465301514,45.9266076493074
292780,-0.341399997472763,45.9266076493074
292890,-0.340985685586929,45.982410073883
293000,-0.340571343898773,46.094022951005
293110,-0.34160715341568,46.2056278001562
293220,-0.341192841529846,46.4846399230342
293330,-0.340985685586929,46.5404423476098
293440,-0.342021465301514,46.4288374984586
293550,-0.34160715341568,46.2056197721855
293660,-0.340157032012939,46.5404423476098
293770,-0.340571343898773,46.7078576493074
293880,-0.342021465301514,46.373035073883
293980,-0.340985685586929,46.5404423476098
294090,-0.34077849984169,46.5962528001562
294200,-0.341814309358597,46.3730431018538
294310,-0.34160715341568,46.1498253755806
294420,-0.340571343898773,46.484647951005
294530,-0.342228621244431,46.484647951005
294640,-0.341192841529846,46.484647951005
294750,-0.34160715341568,46.4288455264294
294860,-0.341399997472763,46.484647951005
294970,-0.34160715341568,46.3172406772781
295080,-0.340571343898773,46.4846559789757
295190,-0.34160715341568,46.6520632527025
295300,-0.340985685586929,46.5404503755806
295400,-0.341192841529846,46.373035073883
295510,-0.339742720127106,46.8752649230342
295620,-0.340985685586929,46.9310673476098
295730,-0.341399997472763,47.0984746213367
295840,-0.340985685586929,47.4890996213367
295950,-0.342228621244431,47.0984746213367
296060,-0.341192841529846,47.2658818950635
296170,-0.34160715341568,47.0426641687903
296280,-0.34077849984169,47.2658818950635
296390,-0.342228621244431,47.1542770459123
296500,-0.34077849984169,47.3216923476098
296610,-0.341814309358597,47.2658899230342
296710,-0.342021465301514,47.0984826493074
296820,-0.341399997472763,47.0426802247318
296930,-0.342228621244431,46.875272951005
297040,-0.340571343898773,47.0984906772781
297150,-0.341399997472763,47.0426882527025
297260,-0.34243580698967,46.5962528001562
297370,-0.34243580698967,46.2614302247318
297480,-0.340571343898773,46.4288455264294
297590,-0.34160715341568,46.1498253755806
297700,-0.341814309358597,45.8708052247318
297810,-0.34160715341568,45.7592003755806
297920,-0.340985685586929,45.8150028001562
298030,-0.341192841529846,45.8150028001562
298130,-0.341399997472763,45.7592003755806
298240,-0.341399997472763,45.703397951005
298350,-0.340985685586929,45.982410073883
298460,-0.340985685586929,46.3172246213367
298570,-0.34160715341568,46.3730270459123
298680,-0.342021465301514,46.2056197721855
298790,-0.34160715341568,45.8707971967611
298900,-0.341192841529846,45.8149947721855
299010,-0.34160715341568,45.8707971967611
299120,-0.341399997472763,45.8707971967611
299230,-0.341192841529846,45.9265996213367
299340,-0.341814309358597,45.7591923476098
299440,-0.341399997472763,45.7033899230342
299550,-0.34160715341568,45.5359826493074
299660,-0.341192841529846,45.2569624984586
299770,-0.341192841529846,45.201160073883
299880,-0.340364187955856,45.0895552247318
299990,-0.340985685586929,45.2569624984586
300100,-0.340985685586929,45.4243697721855
300210,-0.34077849984169,45.8149947721855
300320,-0.341399997472763,45.5917770459123
300430,-0.341399997472763,45.8149867442147
300540,-0.34077849984169,45.9824020459123
300650,-0.341399997472763,45.9265996213367
300760,-0.34077849984169,45.982410073883
300860,-0.340364187955856,45.982410073883
300970,-0.341192841529846,46.1498173476098
301080,-0.34077849984169,46.2614302247318
301190,-0.34243580698967,46.1498173476098
301300,-0.341814309358597,45.8149947721855
301410,-0.340985685586929,45.8707971967611
301520,-0.342228621244431,45.7591923476098
301630,-0.341192841529846,45.6475794704879
301740,-0.341192841529846,45.5359665933659
301850,-0.34243580698967,45.3685512916684
301960,-0.340571343898773,45.4801641687903
302070,-0.341192841529846,45.8149867442147
302170,-0.34077849984169,46.1498093196391
302280,-0.340571343898773,46.2614221967611
302390,-0.34160715341568,46.2056197721855
302500,-0.340571343898773,46.4846399230342
302610,-0.341399997472763,46.4846399230342
302720,-0.34160715341568,46.7078576493074
302830,-0.342021465301514,46.4288455264294
302940,-0.340364187955856,46.7078656772781
303050,-0.340364187955856,47.0426882527025
303160,-0.342228621244431,47.0426882527025
303270,-0.341399997472763,46.875272951005
303380,-0.341192841529846,46.9310753755806
303490,-0.34160715341568,46.6520552247318
303590,-0.341192841529846,46.6520552247318
303700,-0.341814309358597,46.484647951005
303810,-0.341814309358597,46.484647951005
303920,-0.341192841529846,46.484647951005
304030,-0.341399997472763,46.2614302247318
304140,-0.341399997472763,46.3172326493074
304250,-0.341814309358597,45.9266076493074
304360,-0.342228621244431,45.5359826493074
304470,-0.340985685586929,45.5359826493074
304580,-0.341399997472763,45.4801802247318
304690,-0.341192841529846,45.3127649230342
304800,-0.341399997472763,45.591785073883
304900,-0.339742720127106,45.982410073883
305010,-0.341814309358597,46.0940149230342
305120,-0.34160715341568,45.9266076493074
305230,-0.340985685586929,45.8149947721855
305340,-0.342228621244431,45.591785073883
305450,-0.34077849984169,45.8150028001562
305560,-0.34160715341568,45.6475955264294
305670,-0.341399997472763,45.4801802247318
305780,-0.342228621244431,45.2569705264294
305890,-0.340571343898773,45.4243858281269
306000,-0.341399997472763,45.3685834035513
306110,-0.341399997472763,45.4243858281269
306220,-0.342228621244431,44.8663535544001
306320,-0.341814309358597,44.7547487052489
306430,-0.341399997472763,44.9221559789757
306540,-0.340985685586929,45.0895632527025
306650,-0.342021465301514,45.0895632527025
306760,-0.342228621244431,44.8663535544001
306870,-0.340985685586929,44.8663535544001
306980,-0.342021465301514,44.4757285544001
307090,-0.340985685586929,44.6431358281269
307200,-0.341192841529846,44.6431358281269
307310,-0.342642962932587,44.1967084035513
307420,-0.341399997472763,44.3641156772781
307530,-0.342021465301514,44.2525108281269
307630,-0.341399997472763,43.9176882527025
307740,-0.34077849984169,43.8618858281269
307850,-0.341399997472763,44.0292931018538
307960,-0.341192841529846,43.9734906772781
308070,-0.341399997472763,43.8060753755806
308180,-0.341399997472763,43.9176802247318
308290,-0.340364187955856,44.2525028001562
308400,-0.340985685586929,44.1408899230342
308510,-0.34077849984169,44.5315149230342
308620,-0.341192841529846,44.5315149230342
308730,-0.34160715341568,44.5315149230342
308840,-0.342021465301514,44.3641076493074
308950,-0.34243580698967,44.1408899230342
309050,-0.340571343898773,44.1408899230342
309160,-0.34077849984169,44.3641076493074
309270,-0.341814309358597,44.140897951005
309380,-0.34077849984169,44.2525108281269
309490,-0.340571343898773,44.0293011298245
309600,-0.339949876070023,44.3083212806733
309710,-0.340571343898773,44.5315390069464
309820,-0.341814309358597,44.308329308644
309930,-0.34160715341568,44.4757365823708
310040,-0.341814309358597,44.308329308644
310150,-0.341399997472763,44.3641317332196
310260,-0.342642962932587,43.8618938560977
310360,-0.341814309358597,43.9734987052489
310470,-0.341192841529846,43.8618858281269
310580,-0.341814309358597,43.8618858281269
310690,-0.34160715341568,43.9734906772781
310800,-0.340985685586929,44.0850955264294
310910,-0.34077849984169,44.4757205264294
311020,-0.34160715341568,44.1967003755806
311130,-0.34160715341568,44.140897951005
311240,-0.341399997472763,44.4199181018538
311350,-0.341192841529846,44.7547406772781
311460,-0.340364187955856,44.8105431018538
311570,-0.341814309358597,44.7547406772781
311680,-0.34160715341568,44.8105431018538
311780,-0.341399997472763,44.8663455264294
311890,-0.340985685586929,44.8663455264294
312000,-0.34160715341568,44.7547406772781
312110,-0.342228621244431,44.5315309789757
312220,-0.341814309358597,44.4199261298245
312330,-0.341399997472763,44.3083212806733
312440,-0.341399997472763,44.1967164315221
312550,-0.340985685586929,44.3641237052489
312660,-0.34077849984169,44.6989462806733
312770,-0.34077849984169,44.9221640069464
312880,-0.341814309358597,44.7547567332196
312990,-0.341399997472763,44.8105591577952
313090,-0.341399997472763,44.8105591577952
313200,-0.34160715341568,44.698954308644
313310,-0.342228621244431,44.5873494594928
313420,-0.34243580698967,44.308329308644
313530,-0.340364187955856,44.6431518840684
313640,-0.34077849984169,44.7547647611903
313750,-0.340571343898773,44.9221800628879
313860,-0.34160715341568,44.5873574874635
313970,-0.34160715341568,44.4199502137367
314080,-0.34160715341568,44.2525429400099
314190,-0.341192841529846,44.1409300628879
314300,-0.34160715341568,44.0851276383123
314410,-0.340985685586929,44.1967324874635
314510,-0.341399997472763,44.029317185766
314620,-0.341192841529846,44.0851196103416
314730,-0.341192841529846,43.9735067332196
314840,-0.341399997472763,43.6944865823708
314950,-0.341399997472763,43.6386841577952
315060,-0.34077849984169,43.6386841577952
315170,-0.34160715341568,43.8619018840684
315280,-0.340985685586929,44.0851115823708
315390,-0.341399997472763,43.9735067332196
315500,-0.342021465301514,44.0293091577952
315610,-0.340157032012939,44.308329308644
315720,-0.339742720127106,44.698954308644
315820,-0.340364187955856,45.2569946103416
315930,-0.341814309358597,44.9221720349172
316040,-0.34243580698967,44.5873494594928
316150,-0.34160715341568,44.3641317332196
316260,-0.34160715341568,44.0851115823708
316370,-0.34077849984169,44.308329308644
316480,-0.340364187955856,44.3641317332196
316590,-0.341399997472763,44.3641317332196
316700,-0.34160715341568,44.3641317332196
316810,-0.342021465301514,44.3641317332196
316920,-0.341192841529846,44.1409140069464
317030,-0.34160715341568,43.8060914315221
317140,-0.34160715341568,43.9734987052489
317240,-0.34077849984169,44.1409140069464
317350,-0.340157032012939,44.4199341577952
317460,-0.34077849984169,44.6431518840684
317570,-0.341192841529846,44.6431518840684
317680,-0.342021465301514,44.5873494594928
317790,-0.341192841529846,44.7547567332196
317900,-0.340985685586929,44.8105591577952
318010,-0.341192841529846,44.8663615823708
318120,-0.34160715341568,44.8105591577952
318230,-0.341192841529846,44.9779664315221
318340,-0.342021465301514,45.0337688560977
318450,-0.342228621244431,44.698954308644
318550,-0.340985685586929,44.8105591577952
318660,-0.341192841529846,44.8105591577952
318770,-0.341814309358597,44.698954308644
318880,-0.340985685586929,44.3641317332196
318990,-0.341399997472763,44.4757365823708
319100,-0.34077849984169,44.698954308644
319210,-0.34243580698967,44.308329308644
319320,-0.341814309358597,44.4199341577952
319430,-0.341192841529846,44.3083212806733
319540,-0.342850118875504,43.9734987052489
319650,-0.340985685586929,44.0851035544001
319760,-0.341399997472763,44.3083132527025
319870,-0.34160715341568,44.0292931018538
319970,-0.342021465301514,43.8618858281269
320080,-0.342228621244431,43.6386761298245
320190,-0.34160715341568,43.8060834035513
320300,-0.341814309358597,43.8060834035513
320410,-0.340985685586929,43.9176882527025
320520,-0.34160715341568,43.7502809789757
320630,-0.34160715341568,43.8618858281269
320740,-0.34077849984169,44.2525108281269
320850,-0.340985685586929,44.2525108281269
320960,-0.341192841529846,44.4757205264294
321070,-0.342228621244431,44.1409059789757
321180,-0.34160715341568,44.0293011298245
321280,-0.341814309358597,44.2525188560977
321390,-0.342228621244431,44.0293091577952
321500,-0.34160715341568,44.1409140069464
321610,-0.34077849984169,44.308329308644
321720,-0.34160715341568,44.0851115823708
321830,-0.342021465301514,43.917704308644
321940,-0.34160715341568,43.8060994594928
322050,-0.341192841529846,43.8619018840684
322160,-0.341192841529846,43.917704308644
322270,-0.342021465301514,43.4712768840684
322380,-0.341814309358597,43.248067185766
322490,-0.341399997472763,43.0806518840684
322600,-0.34077849984169,43.1922647611903
322700,-0.340571343898773,43.4712849120391
322810,-0.340985685586929,43.7502970349172
322920,-0.340985685586929,44.1409220349172
323030,-0.340571343898773,44.1409220349172
323140,-0.341399997472763,43.9735067332196
323250,-0.34160715341568,44.0293091577952
323360,-0.34160715341568,43.8060914315221
323470,-0.341814309358597,43.4712688560977
323580,-0.342228621244431,42.8574341577952
323690,-0.340985685586929,42.7458212806733
323800,-0.34077849984169,43.0248414315221
323910,-0.340985685586929,43.1922487052489
324010,-0.342021465301514,43.1364462806733
324120,-0.341399997472763,43.1364462806733
324230,-0.341814309358597,43.3596640069464
324340,-0.34160715341568,43.4154664315221
324450,-0.340571343898773,43.5828817332196
324560,-0.341399997472763,43.6944865823708
324670,-0.342021465301514,43.5828817332196
324780,-0.34077849984169,43.638692185766
324890,-0.341814309358597,43.3596720349172
325000,-0.340985685586929,43.527079308644
325110,-0.341814309358597,43.4712768840684
325220,-0.341192841529846,43.527079308644
325330,-0.341192841529846,43.527079308644
325430,-0.341399997472763,43.2480591577952
325540,-0.34160715341568,43.3038615823708
325650,-0.341814309358597,43.2480591577952
325760,-0.342021465301514,43.0806518840684
325870,-0.341814309358597,42.857442185766
325980,-0.340364187955856,43.1922647611903
326090,-0.341192841529846,43.4712768840684
326200,-0.341192841529846,43.6386841577952
326310,-0.340985685586929,43.7502890069464
326420,-0.341399997472763,43.7502890069464
326530,-0.340571343898773,43.8619018840684
326640,-0.341192841529846,43.7502890069464
326740,-0.339742720127106,44.0293011298245
326850,-0.342228621244431,43.9176962806733
326960,-0.341814309358597,43.8060914315221
327070,-0.341192841529846,43.8618938560977
327180,-0.342228621244431,43.6944865823708
327290,-0.34077849984169,44.0851115823708
327400,-0.340985685586929,44.4757365823708
327510,-0.340364187955856,44.4757365823708
327620,-0.341814309358597,44.1967164315221
327730,-0.34160715341568,43.9176962806733
327840,-0.341814309358597,43.8618938560977
327950,-0.341399997472763,43.9176962806733
328060,-0.34160715341568,43.9176962806733
328160,-0.342228621244431,43.6386841577952
328270,-0.340364187955856,43.9735067332196
328380,-0.340364187955856,44.1409220349172
328490,-0.34160715341568,44.0851196103416
328600,-0.340985685586929,44.1409220349172
328710,-0.340985685586929,44.1967244594928
328820,-0.341192841529846,44.2525268840684
328930,-0.34160715341568,44.1967244594928
329040,-0.341814309358597,43.917704308644
329150,-0.34243580698967,43.6944865823708
329260,-0.34160715341568,43.527079308644
329370,-0.34077849984169,43.6944946103416
329470,-0.342021465301514,43.6944946103416
329580,-0.34077849984169,43.5270873366147
329690,-0.341399997472763,43.0806599120391
329800,-0.341399997472763,42.8016397611903
329910,-0.341399997472763,42.9132446103416
330020,-0.341192841529846,43.248067185766
330130,-0.341814309358597,43.1922647611903
330240,-0.34160715341568,43.1922647611903
330350,-0.34077849984169,43.1922647611903
330460,-0.34160715341568,42.857442185766
330570,-0.341192841529846,42.9132446103416
330680,-0.34077849984169,43.1364623366147
330790,-0.341814309358597,43.1922647611903
330890,-0.342021465301514,42.9690550628879
331000,-0.341399997472763,43.0248574874635
331110,-0.341399997472763,43.0806599120391
331220,-0.342642962932587,42.5784220349172
331330,-0.34160715341568,42.1877970349172
331440,-0.341192841529846,42.0761841577952
331550,-0.341399997472763,42.0203817332196
331660,-0.342228621244431,41.964579308644
331770,-0.341814309358597,41.7971720349172
331880,-0.34160715341568,41.6297647611903
331990,-0.340985685586929,41.685567185766
332100,-0.340985685586929,41.8529744594928
332200,-0.342021465301514,41.6297647611903
332310,-0.34077849984169,41.9645873366147
332420,-0.341192841529846,42.2435994594928
332530,-0.34160715341568,42.076192185766
332640,-0.34160715341568,41.9645873366147
332750,-0.342021465301514,41.9087849120391
332860,-0.341192841529846,41.8529824874635
332970,-0.34160715341568,41.7971800628879
333080,-0.34077849984169,41.7971800628879
333190,-0.341814309358597,41.9645953645855
333300,-0.34160715341568,42.0203977891611
333410,-0.342021465301514,41.7971880908586
333520,-0.341399997472763,42.1878130908586
333620,-0.34160715341568,42.0204058171318
333730,-0.341814309358597,41.9088009679806
333840,-0.340985685586929,42.0762082417074
333950,-0.342642962932587,41.9087929400099
334060,-0.34160715341568,42.0762002137367
334170,-0.340571343898773,42.3552203645855
334280,-0.341192841529846,42.5226276383123
334390,-0.34160715341568,42.3552203645855
334500,-0.342021465301514,42.2436155154343
334610,-0.34160715341568,42.2436155154343
334720,-0.341814309358597,41.9645953645855
334830,-0.341399997472763,41.8529905154343
334930,-0.34077849984169,41.9646033925562
335040,-0.34160715341568,42.132010666283
335150,-0.341192841529846,42.2436155154343
335260,-0.34077849984169,42.522635666283
335370,-0.340157032012939,43.0806679400099
335480,-0.342021465301514,42.9690630908586
335590,-0.342021465301514,42.6342405154343
335700,-0.341192841529846,42.7458453645855
335810,-0.340985685586929,43.0248574874635
335920,-0.341192841529846,43.1364623366147
336030,-0.341192841529846,43.1364623366147
336140,-0.341399997472763,43.0806599120391
336250,-0.341192841529846,43.3038696103416
336350,-0.341192841529846,43.4712768840684
336460,-0.341814309358597,43.3596720349172
336570,-0.341399997472763,43.1922567332196
336680,-0.34077849984169,43.136454308644
336790,-0.34077849984169,43.1922647611903
336900,-0.341399997472763,43.0806599120391
337010,-0.340985685586929,42.9690470349172
337120,-0.340157032012939,43.3038696103416
337230,-0.34160715341568,43.3038696103416
337340,-0.342228621244431,43.1364623366147
337450,-0.341399997472763,43.248067185766
337560,-0.341192841529846,43.527079308644
337660,-0.34243580698967,43.136454308644
337770,-0.341399997472763,42.9690390069464
337880,-0.341814309358597,42.745829308644
337990,-0.342642962932587,42.5784140069464
338100,-0.341399997472763,42.5784140069464
338210,-0.340985685586929,42.8016237052489
338320,-0.340985685586929,42.9690309789757
338430,-0.34243580698967,42.4667931018538
338540,-0.341399997472763,42.4667931018538
338650,-0.341814309358597,42.5225955264294
338760,-0.340571343898773,42.578397951005
338870,-0.341192841529846,42.7458052247318
338980,-0.34160715341568,42.578397951005
339080,-0.341399997472763,42.6900028001562
339190,-0.341399997472763,42.6342003755806
339300,-0.340985685586929,42.6900028001562
339410,-0.340571343898773,42.9132205264294
339520,-0.342021465301514,42.8016156772781
339630,-0.341399997472763,42.9132205264294
339740,-0.340985685586929,43.1922326493074
339850,-0.340985685586929,43.4154423476098
339960,-0.341814309358597,43.0248173476098
340070,-0.340985685586929,43.0806197721855
340180,-0.34160715341568,42.9690149230342
340290,-0.34160715341568,42.8016076493074
340400,-0.340985685586929,42.9132124984586
340500,-0.340157032012939,43.0248173476098
340610,-0.34160715341568,42.9132124984586
340720,-0.340364187955856,42.7458052247318
340830,-0.340985685586929,43.0806197721855
340940,-0.341814309358597,43.0806197721855
341050,-0.340571343898773,43.248035073883
341160,-0.341192841529846,43.5270471967611
341270,-0.34077849984169,43.5270471967611
341380,-0.341814309358597,43.3038374984586
341490,-0.342021465301514,42.857410073883
341600,-0.339949876070023,43.3596399230342
341710,-0.34160715341568,43.3596399230342
341810,-0.341192841529846,43.5270471967611
341920,-0.34077849984169,43.6944624984586
342030,-0.339535564184189,44.2524947721855
342140,-0.341399997472763,44.4757044704879
342250,-0.341399997472763,44.1966843196391
342360,-0.340571343898773,44.1408818950635
342470,-0.340571343898773,44.4199020459123
342580,-0.340985685586929,44.4199020459123
342690,-0.341814309358597,44.1966923476098
342800,-0.341399997472763,44.1408899230342
342910,-0.34077849984169,44.3641076493074
343020,-0.341399997472763,44.4757124984586
343130,-0.340364187955856,45.0337528001562
343230,-0.339949876070023,45.4801802247318
343340,-0.339949876070023,45.7033899230342
343450,-0.341192841529846,45.9265996213367
343560,-0.342021465301514,45.5917770459123
343670,-0.342228621244431,45.3685673476098
343780,-0.34243580698967,45.0895471967611
343890,-0.341192841529846,45.1453496213367
344000,-0.341399997472763,45.0895471967611
344110,-0.340985685586929,45.3127568950635
344220,-0.341399997472763,45.3685593196391
344330,-0.341192841529846,45.2569464425172
344440,-0.341814309358597,45.2011440179416
344540,-0.341192841529846,45.2011440179416
344650,-0.34077849984169,45.2011440179416
344760,-0.34160715341568,45.2569464425172
344870,-0.34160715341568,45.3685512916684
344980,-0.341814309358597,45.2569464425172
345090,-0.341814309358597,45.1453415933659
345200,-0.33932837843895,46.0382044704879
345310,-0.340571343898773,46.3172246213367
345420,-0.342021465301514,46.0940149230342
345530,-0.341399997472763,46.0940149230342
345640,-0.34077849984169,46.4846399230342
345750,-0.340985685586929,46.7078496213367
345860,-0.34077849984169,46.9310673476098
345960,-0.342228621244431,46.5962528001562
346070,-0.342021465301514,46.3172406772781
346180,-0.341192841529846,46.5404503755806
346290,-0.340364187955856,46.6520552247318
346400,-0.340157032012939,46.9310753755806
346510,-0.341399997472763,46.9868778001562
346620,-0.34160715341568,46.9868778001562
346730,-0.342021465301514,46.9868778001562
346840,-0.341399997472763,46.9310753755806
346950,-0.34243580698967,0
347060,-0.340985685586929,79.0186737021661
347170,-0.34077849984169,69.6285515195109
347270,-0.34077849984169,70.0191765195109
347380,-0.34077849984169,70.6051069951448
347490,-0.341399997472763,70.6051069951448
347600,-0.342642962932587,73.4370754143956
347710,-0.34077849984169,73.8711018046387
347820,-0.34160715341568,73.6106934631799
347930,-0.342021465301514,73.8711142924506
348040,-0.34077849984169,74.2183379022074
348150,-0.341192841529846,73.9579170729368
348260,-0.341399997472763,73.8711142924506
348370,-0.34160715341568,73.8711142924506
348480,-0.341814309358597,73.9579170729368
348590,-0.341399997472763,74.0447198534231
348690,-0.342228621244431,73.8711142924506
348800,-0.341399997472763,73.8711142924506
348910,-0.340985685586929,73.7842990241524
349020,-0.341814309358597,73.6974962436662
349130,-0.340985685586929,73.7842990241524
349240,-0.340985685586929,73.6974837558543
349350,-0.34160715341568,73.0898518046387
349460,-0.342228621244431,73.0030490241524
349570,-0.34160715341568,73.1766545851249
349680,-0.341399997472763,73.0898518046387
349790,-0.340364187955856,60.0142082608582
349900,-0.339742720127106,47.544910073883
350000,-0.341399997472763,47.4891076493074
350110,-0.341814309358597,47.3775028001562
350220,-0.34160715341568,47.265897951005
350330,-0.342642962932587,46.875272951005
350440,-0.340985685586929,47.0984826493074
350550,-0.34077849984169,47.265897951005
350660,-0.342228621244431,46.875272951005
350770,-0.342021465301514,46.5404503755806
350880,-0.340364187955856,46.8194705264294
350990,-0.340985685586929,46.8194705264294
351100,-0.340985685586929,46.5962528001562
351210,-0.34160715341568,46.5962528001562
351320,-0.342228621244431,46.5962528001562
351420,-0.34160715341568,46.5404503755806
351530,-0.342021465301514,46.3172406772781
351640,-0.342021465301514,46.4288535544001
351750,-0.340571343898773,46.6520712806733
351860,-0.341192841529846,46.8194785544001
351970,-0.340571343898773,47.3775188560977
352080,-0.340571343898773,47.6007365823708
352190,-0.34077849984169,47.6565470349172
352300,-0.340571343898773,47.7681599120391
352410,-0.341192841529846,48.1029824874635
352520,-0.341399997472763,48.1029824874635
352630,-0.341399997472763,48.2145873366147
352730,-0.34243580698967,47.7123494594928
352840,-0.341814309358597,47.544942185766
352950,-0.341399997472763,47.6007446103416
353060,-0.341192841529846,47.6565470349172
353170,-0.342228621244431,47.4333373366147
353280,-0.341814309358597,47.2101276383123
353390,-0.342642962932587,46.6520873366147
353500,-0.34160715341568,46.763692185766
353610,-0.342021465301514,46.5962849120391
353720,-0.341192841529846,46.5404824874635
353830,-0.341192841529846,46.4846800628879
353940,-0.341399997472763,46.5962849120391
354050,-0.341399997472763,46.4846800628879
354150,-0.33932837843895,47.0985227891611
354260,-0.341399997472763,47.1543252137367
354370,-0.341399997472763,47.0427203645855
354480,-0.34243580698967,46.4288776383123
354590,-0.340364187955856,46.7637002137367
354700,-0.340571343898773,46.7078977891611
354810,-0.341814309358597,46.4846880908586
354920,-0.34160715341568,46.5404905154343
355030,-0.342021465301514,46.1498655154343
355140,-0.34160715341568,46.038260666283
355250,-0.34243580698967,45.5918252137367
355360,-0.34077849984169,45.8708453645855
355460,-0.340985685586929,46.1498574874635
355570,-0.342021465301514,45.5918252137367
355680,-0.340985685586929,45.7592324874635
355790,-0.340157032012939,46.0382526383123
355900,-0.341192841529846,45.9266397611903
356010,-0.340157032012939,45.7592324874635
356120,-0.341399997472763,45.7592324874635
356230,-0.342642962932587,45.4244099120391
356340,-0.34243580698967,44.9221720349172
356450,-0.340571343898773,44.9221720349172
356560,-0.342850118875504,44.419942185766
356670,-0.34077849984169,44.6989623366147
356780,-0.341192841529846,44.7547647611903
356880,-0.342228621244431,44.3641397611903
356990,-0.340985685586929,44.4757446103416
357100,-0.34160715341568,44.1409220349172
357210,-0.342850118875504,43.3596720349172
357320,-0.34160715341568,42.9132446103416
357430,-0.340157032012939,43.1922647611903
357540,-0.341192841529846,43.4154744594928
357650,-0.342228621244431,43.4154744594928
357760,-0.340985685586929,43.8060994594928
357870,-0.341399997472763,43.7502970349172
357980,-0.341814309358597,43.638692185766
358090,-0.340985685586929,43.638692185766
358190,-0.341399997472763,43.638692185766
358300,-0.342021465301514,43.4154824874635
358410,-0.341814309358597,43.4154824874635
358520,-0.341399997472763,43.3596800628879
358630,-0.341192841529846,43.248067185766
358740,-0.342850118875504,42.9132446103416
358850,-0.34160715341568,42.9132446103416
358960,-0.34160715341568,42.9690470349172
359070,-0.34243580698967,42.8016317332196
359180,-0.342021465301514,42.0761841577952
359290,-0.340985685586929,41.9645712806733
359400,-0.34077849984169,42.2993938560977
359510,-0.34160715341568,42.2435914315221
359610,-0.341399997472763,42.0761761298245
359720,-0.341399997472763,41.9645712806733
359830,-0.341192841529846,41.8529584035513
359940,-0.341399997472763,42.0761681018538
360050,-0.34077849984169,42.4109906772781
360160,-0.340364187955856,42.6342084035513
360270,-0.341399997472763,42.3551882527025
360380,-0.341814309358597,41.9087608281269
360490,-0.341814309358597,41.7971559789757
360600,-0.341814309358597,41.7413535544001
360710,-0.341192841529846,41.9645632527025
360820,-0.34077849984169,42.1319785544001
360920,-0.340985685586929,42.5226035544001
361030,-0.340985685586929,42.5226035544001
361140,-0.341814309358597,42.2435834035513
361250,-0.341399997472763,42.0761681018538
361360,-0.340985685586929,42.0203576493074
361470,-0.341192841529846,42.076160073883
361580,-0.340364187955856,42.6900028001562
361690,-0.340571343898773,42.7458052247318
361800,-0.340571343898773,43.0248253755806
361910,-0.34077849984169,43.359647951005
362020,-0.340985685586929,43.3038374984586
362130,-0.340157032012939,43.5828576493074
362240,-0.341399997472763,43.5828576493074
362340,-0.34077849984169,43.8060753755806
362450,-0.341399997472763,43.9176802247318
362560,-0.342228621244431,43.6944705264294
362670,-0.341399997472763,43.9176802247318
362780,-0.339949876070023,44.3083052247318
362890,-0.342021465301514,44.0292931018538
363000,-0.341192841529846,44.1967003755806
363110,-0.34077849984169,44.2525108281269
363220,-0.340364187955856,44.4199261298245
363330,-0.342021465301514,44.3083212806733
363440,-0.341399997472763,44.5315309789757
363550,-0.340571343898773,44.8105511298245
363650,-0.341814309358597,44.6989462806733
363760,-0.341814309358597,44.3083212806733
363870,-0.341192841529846,43.9176962806733
363980,-0.340985685586929,44.0293011298245
364090,-0.340985685586929,44.2525108281269
364200,-0.341192841529846,44.3641156772781
364310,-0.340985685586929,44.8105431018538
364420,-0.342228621244431,44.4757285544001
364530,-0.340985685586929,44.4199181018538
