time,raw,transformed
5350,-0.338499754667282,0
5440,-0.338706910610199,0
5540,-0.339949876070023,0
5650,-0.339535564184189,0
5760,-0.33932837843895,0
5870,-0.339535564184189,0
5980,-0.339535564184189,0
6090,-0.33932837843895,0
6230,-0.339121222496033,22.2158282581214
6310,-0.33932837843895,19.9942454323226
6420,-0.338914066553116,18.1792024692376
6530,-0.339949876070023,61.6665707599665
6640,-0.337671101093292,33.5664610032616
6750,-0.338706910610199,35.0649520496378
6850,-0.338914066553116,35.7575995361599
6960,-0.339535564184189,34.6590834782836
7070,-0.340364187955856,42.0812326479873
7180,-0.339742720127106,41.0254092968649
7290,-0.340157032012939,39.271026567692
7400,-0.339121222496033,39.6151718032424
7510,-0.338914066553116,40.2928335612454
7620,-0.339121222496033,40.5592470938564
7730,-0.338706910610199,41.4713757490758
7840,-0.340157032012939,40.0639074863055
7950,-0.340157032012939,38.7690366845577
8060,-0.340157032012939,37.5737713290965
8170,-0.339535564184189,37.3217260861816
8270,-0.339535564184189,37.0876840749023
8380,-0.339121222496033,37.4003132888276
8490,-0.340985685586929,47.5000674345207
8600,-0.340157032012939,46.7742660586249
8710,-0.33932837843895,46.8750842931513
8820,-0.339742720127106,46.5909874239394
8930,-0.339121222496033,46.8750842931513
9040,-0.339949876070023,46.4286549189316
9150,-0.340364187955856,45.6598143202943
9260,-0.33932837843895,45.7771287863273
9370,-0.340157032012939,45.2303681546272
9480,-0.339742720127106,45.0321507047429
9580,-0.33932837843895,45.1563581762102
9690,-0.33932837843895,45.2745067466318
9800,-0.340157032012939,44.7917857474674
9910,-0.339949876070023,44.4768618043965
10020,-0.340157032012939,44.0342109629724
10130,-0.341399997472763,49.1357610277696
10240,-0.33932837843895,49.2753275698686
10350,-0.340364187955856,48.8179357275769
10460,-0.34077849984169,48.1481259474157
10570,-0.340571343898773,47.6190313083051
10680,-0.340157032012939,47.3333173488063
10790,-0.338706910610199,47.8213324795716
10900,-0.339121222496033,48.0769077071858
11000,-0.339535564184189,48.1131849275555
11110,-0.340157032012939,47.8394839721075
11220,-0.338499754667282,48.3838117429597
11330,-0.340571343898773,47.9166452588178
11440,-0.339535564184189,47.9531883312393
11550,-0.340571343898773,47.5095555777871
11660,-0.339742720127106,47.4576000262261
11770,-0.339121222496033,47.6851607643804
11880,-0.339535564184189,47.7231023975354
11990,-0.338706910610199,48.1182473430243
12100,-0.339949876070023,47.9717474754274
12210,-0.33932837843895,48.0902486393171
12310,-0.341399997472763,47.3503986602502
12420,-0.339742720127106,47.3063650144238
12530,-0.339949876070023,47.1807290542755
12640,-0.339949876070023,47.0587882694263
12750,-0.341399997472763,46.376776845231
12860,-0.33932837843895,46.5079060612184
12970,-0.339742720127106,46.4788394693094
13080,-0.338292598724365,46.9907018894606
13190,-0.337878257036209,47.6407549820536
13300,-0.340571343898773,47.2972648962284
13410,-0.340157032012939,47.1110791420573
13520,-0.340985685586929,46.6373918467971
13630,-0.339535564184189,46.6810568927714
13730,-0.339535564184189,46.7236023221826
13840,-0.340571343898773,46.4134616425482
13950,-0.33932837843895,46.5277411465698
14060,-0.339742720127106,46.5020181452011
14170,-0.339535564184189,46.5446715871717
14280,-0.339949876070023,46.4524316365374
14390,-0.340157032012939,46.296251894833
14500,-0.33932837843895,46.4051880132968
14610,-0.339535564184189,46.4469835060129
14720,-0.34077849984169,46.1046856068609
14830,-0.340157032012939,45.9595566037529
14940,-0.340364187955856,45.7552684507022
15040,-0.339742720127106,45.7407007794231
15150,-0.340364187955856,45.5433074849484
15260,-0.33932837843895,45.652139164072
15370,-0.340571343898773,45.4002074379096
15480,-0.340571343898773,45.1536359612412
15590,-0.340985685586929,44.7952907900945
15700,-0.340157032012939,44.67589539992
15810,-0.341399997472763,44.2153191586829
15920,-0.33932837843895,44.331038575067
16030,-0.339535564184189,44.3882967751862
16140,-0.341192841529846,43.9999680309454
16250,-0.339535564184189,44.0593703314994
16360,-0.339949876070023,44.0086780310383
16460,-0.340571343898773,43.7971616290968
16570,-0.339121222496033,43.9636431933888
16680,-0.340985685586929,43.6507593982365
16790,-0.340571343898773,43.4486059004312
16900,-0.340364187955856,43.3021508077371
17010,-0.340985685586929,43.0040831586129
17120,-0.339949876070023,42.9663278606864
17230,-0.340364187955856,42.8282513436087
17340,-0.34077849984169,42.5925649916829
17450,-0.339949876070023,42.5594952657261
17560,-0.33932837843895,42.674507006422
17670,-0.339535564184189,42.7387622115121
17770,-0.33932837843895,42.850214905016
17880,-0.339742720127106,42.8639559664871
17990,-0.340571343898773,42.6875331687471
18100,-0.341399997472763,42.3257744130799
18210,-0.339949876070023,42.2968919027552
18320,-0.340571343898773,42.1296052088238
18430,-0.339949876070023,42.102821328458
18540,-0.339742720127106,42.1220127768786
18650,-0.340364187955856,42.0053940630992
18760,-0.340364187955856,41.8906562963179
18870,-0.340157032012939,41.8221977126142
18980,-0.339949876070023,41.7989164266766
19090,-0.339742720127106,41.8197452582442
19190,-0.340157032012939,41.7534451650802
19300,-0.339949876070023,41.4496267612951
19410,-0.340571343898773,41.059004883273
19520,-0.34077849984169,40.8853979347991
19630,-0.340571343898773,40.6683892492068
19740,-0.342228621244431,40.0607524416365
19850,-0.341192841529846,39.7135323007329
19960,-0.339742720127106,39.6701305636144
20070,-0.34160715341568,39.1926989673996
20180,-0.340157032012939,38.9756840378514
20290,-0.33932837843895,38.9756840378514
20400,-0.34077849984169,38.5850621598293
20500,-0.339949876070023,38.5850621598293
20610,-0.340364187955856,38.0208270893775
20720,-0.34077849984169,37.5868034742369
20830,-0.33932837843895,37.5
20940,-0.340157032012939,37.3697947886446
21050,-0.339535564184189,37.5434017371185
21160,-0.340985685586929,37.2829850704518
21270,-0.341192841529846,37.0659701409036
21380,-0.340364187955856,36.8055534742369
21490,-0.339949876070023,36.5885385446887
21600,-0.340571343898773,36.2847201409036
21710,-0.340157032012939,35.9809017371185
21820,-0.340571343898773,35.8940982628815
21920,-0.34077849984169,35.7638930515261
22030,-0.339742720127106,35.8506965257631
22140,-0.339742720127106,35.8072947886446
22250,-0.341192841529846,35.460074647741
22360,-0.339949876070023,35.2864614553113
22470,-0.340157032012939,35.460074647741
22580,-0.339535564184189,35.5902798590964
22690,-0.33932837843895,35.5902798590964
22800,-0.339949876070023,35.5468781219779
22910,-0.34077849984169,35.1996579810743
23020,-0.340364187955856,35.1128545068374
23130,-0.339949876070023,35.1996579810743
23230,-0.338914066553116,35.2864614553113
23340,-0.341192841529846,35.0694465257631
23450,-0.340157032012939,34.9826430515261
23560,-0.341192841529846,34.5920149295482
23670,-0.339949876070023,34.4618034742369
23780,-0.34077849984169,34.3315982628815
23890,-0.340157032012939,34.2881965257631
24000,-0.340571343898773,34.2013930515261
24110,-0.340571343898773,34.3750062439559
24220,-0.339535564184189,34.3315982628815
24330,-0.339949876070023,34.4184017371185
24440,-0.340571343898773,34.4618034742369
24550,-0.340571343898773,34.4618034742369
24650,-0.34077849984169,34.3315982628815
24760,-0.338706910610199,34.3315982628815
24870,-0.340364187955856,34.0711815962149
24980,-0.341192841529846,33.7239614553113
25090,-0.34160715341568,33.4201430515261
25200,-0.339742720127106,33.1597263848595
25310,-0.340571343898773,33.1597263848595
25420,-0.339535564184189,33.1597263848595
25530,-0.339535564184189,33.3767350704518
25640,-0.34160715341568,32.9861131924297
25750,-0.341399997472763,32.5086815962149
25860,-0.34160715341568,32.0746579810743
25960,-0.340571343898773,31.6840361030522
26070,-0.339949876070023,31.6840361030522
26180,-0.341192841529846,31.2934079810743
26290,-0.340571343898773,31.4670211735041
26400,-0.340571343898773,31.2934142250302
26510,-0.339949876070023,31.2934142250302
26620,-0.339742720127106,31.3368159621486
26730,-0.34077849984169,31.4670274174599
26840,-0.340571343898773,31.2066107507932
26950,-0.34077849984169,30.9896020652009
27060,-0.339121222496033,30.815995116727
27170,-0.339742720127106,30.4253669947491
27280,-0.339949876070023,30.5555722061045
27380,-0.34077849984169,30.4253669947491
27490,-0.340364187955856,30.5555784500603
27600,-0.339535564184189,30.5555784500603
27710,-0.339742720127106,30.5121767129419
27820,-0.339949876070023,30.6423819242973
27930,-0.34077849984169,30.3385635205121
28040,-0.339535564184189,30.3819652576306
28150,-0.339121222496033,30.4687749758234
28260,-0.339535564184189,30.5555784500603
28370,-0.340571343898773,30.4687749758234
28480,-0.340364187955856,30.2517600462752
28590,-0.340157032012939,30.1215548349198
28690,-0.341399997472763,29.9913433796085
28800,-0.339535564184189,30.1215485909639
28910,-0.34160715341568,29.8611319242973
29020,-0.34077849984169,29.6441232387049
29130,-0.340157032012939,29.6875249758234
29240,-0.340985685586929,29.3402985909639
29350,-0.338292598724365,29.817723943223
29460,-0.341814309358597,29.5573072765563
29570,-0.341399997472763,29.4705038023194
29680,-0.341399997472763,29.2100871356527
29790,-0.338914066553116,29.730920468986
29900,-0.34077849984169,29.4271020652009
30010,-0.339949876070023,29.3402985909639
30110,-0.340157032012939,29.5573135205121
30220,-0.340364187955856,29.3837065720383
30330,-0.339949876070023,29.3837065720383
30440,-0.340364187955856,29.4271083091567
30550,-0.339949876070023,29.253495116727
30660,-0.340364187955856,29.3837065720383
30770,-0.338706910610199,29.7743284500603
30880,-0.340157032012939,29.8177301871788
30990,-0.340157032012939,29.9913433796085
31100,-0.339949876070023,29.9913433796085
31210,-0.340571343898773,29.9479416424901
31320,-0.339949876070023,30.1215485909639
31420,-0.339949876070023,30.1215485909639
31530,-0.339742720127106,30.0347388727712
31640,-0.339535564184189,30.0347388727712
31750,-0.340571343898773,29.7743222061045
31860,-0.340571343898773,29.6007152576306
31970,-0.341399997472763,29.4271020652009
32080,-0.340364187955856,29.6441169947491
32190,-0.339949876070023,29.6441169947491
32300,-0.341192841529846,29.5139055394378
32410,-0.341192841529846,29.2534888727712
32520,-0.340364187955856,29.1232836614158
32630,-0.340157032012939,29.1666853985342
32740,-0.34077849984169,29.0798819242973
32840,-0.34077849984169,28.9496767129419
32950,-0.341192841529846,28.6892600462752
33060,-0.339121222496033,28.8194715015865
33170,-0.34077849984169,28.6892662902311
33280,-0.340364187955856,28.6024628159941
33390,-0.339121222496033,28.9062812197793
33500,-0.339949876070023,29.0798881682531
33610,-0.341399997472763,28.9062749758234
33720,-0.34077849984169,29.2100933796085
33830,-0.339742720127106,29.5139117833937
33940,-0.339949876070023,29.4705100462752
34050,-0.340157032012939,29.7743284500603
34150,-0.340157032012939,29.7743284500603
34260,-0.339535564184189,29.730920468986
34370,-0.340364187955856,29.817723943223
34480,-0.340364187955856,29.730920468986
34590,-0.340571343898773,29.6875187318676
34700,-0.340157032012939,29.817723943223
34810,-0.342642962932587,29.1232774174599
34920,-0.340157032012939,29.1232774174599
35030,-0.34077849984169,28.8628669947491
35140,-0.340571343898773,28.9496767129419
35250,-0.340571343898773,29.0798881682531
35360,-0.340985685586929,28.9496767129419
35470,-0.340985685586929,28.7326617833937
35570,-0.340985685586929,28.6458520652009
35680,-0.340157032012939,28.6458520652009
35790,-0.340985685586929,28.5590423470081
35900,-0.341192841529846,28.4722326288153
36010,-0.34077849984169,28.255223943223
36120,-0.33932837843895,28.3420336614158
36230,-0.339949876070023,28.6024503280824
36340,-0.341399997472763,28.2986319242973
36450,-0.340571343898773,28.2118284500603
36560,-0.340571343898773,27.994819764468
36670,-0.340364187955856,27.7778048349198
36780,-0.34077849984169,27.6041978864459
36880,-0.339742720127106,27.8212065720383
36990,-0.340985685586929,27.690995116727
37100,-0.339535564184189,27.7777985909639
37210,-0.34077849984169,27.3871767129419
37320,-0.340364187955856,27.5607899053716
37430,-0.339535564184189,27.690995116727
37540,-0.340985685586929,27.7343968538455
37650,-0.341192841529846,27.4739801871788
37760,-0.34077849984169,27.4739801871788
37870,-0.34077849984169,27.3437749758234
37980,-0.340985685586929,27.2569652576306
38090,-0.340571343898773,27.2569652576306
38200,-0.340571343898773,27.0399565720383
38300,-0.339949876070023,27.0399565720383
38410,-0.340571343898773,27.0399565720383
38520,-0.340571343898773,27.0399565720383
38630,-0.339949876070023,27.2135635205121
38740,-0.340364187955856,26.8663433796085
38850,-0.341399997472763,26.6493284500603
38960,-0.340571343898773,26.7795399053716
39070,-0.34077849984169,26.9531530978013
39180,-0.341192841529846,26.6493346940162
39290,-0.339742720127106,26.8229416424901
39400,-0.341192841529846,26.4757215015865
39510,-0.34077849984169,26.2153110788756
39610,-0.34077849984169,26.3889242713054
39720,-0.340985685586929,26.4757277455423
39830,-0.339949876070023,26.8229478864459
39940,-0.340157032012939,26.9097513606829
40050,-0.340571343898773,26.7795461493274
40160,-0.34077849984169,26.8663558675202
40270,-0.340571343898773,26.8663558675202
40380,-0.339949876070023,26.9965610788756
40490,-0.340364187955856,26.9097576046387
40600,-0.340985685586929,26.649340937972
40710,-0.341192841529846,26.5625312197793
40820,-0.34077849984169,26.5191294826608
40930,-0.340571343898773,26.5625312197793
41030,-0.341192841529846,26.1285013606829
41140,-0.342021465301514,25.6510760084238
41250,-0.341192841529846,25.3906593417572
41360,-0.33932837843895,25.6944777455423
41470,-0.34077849984169,25.6076742713054
41580,-0.340571343898773,25.390665585713
41690,-0.338499754667282,25.6510822523797
41800,-0.340157032012939,25.6076805152612
41910,-0.340985685586929,25.5642725341869
42020,-0.340571343898773,25.3472638485946
42130,-0.341192841529846,24.9132339894982
42240,-0.340571343898773,24.6962253039058
42340,-0.340571343898773,24.6962253039058
42450,-0.339742720127106,24.8264305152612
42560,-0.341814309358597,24.4792103743576
42670,-0.340364187955856,24.6962253039058
42780,-0.34077849984169,24.435814881195
42890,-0.340364187955856,24.6962315478617
43000,-0.341192841529846,24.6094218296689
43110,-0.340364187955856,24.5660200925504
43220,-0.339742720127106,24.8264367592171
43330,-0.339121222496033,24.6528298107432
43440,-0.341192841529846,24.7830350220986
43550,-0.340571343898773,24.9566482145283
43660,-0.340571343898773,25.1302614069581
43760,-0.339535564184189,25.0000499516468
43870,-0.341192841529846,24.913240233454
43980,-0.341399997472763,24.6094218296689
44090,-0.340364187955856,24.5660200925504
44200,-0.34160715341568,24.3056034258837
44310,-0.342021465301514,23.8715798107432
44420,-0.341399997472763,23.654564881195
44530,-0.340157032012939,23.6111631440765
44640,-0.340571343898773,23.5677614069581
44750,-0.341399997472763,23.0035263365063
44860,-0.339742720127106,23.0903298107432
44970,-0.339121222496033,23.3073447402914
45070,-0.339949876070023,23.3073447402914
45180,-0.340364187955856,23.3507464774099
45290,-0.340157032012939,23.3073447402914
45400,-0.340985685586929,23.0903298107432
45510,-0.340571343898773,22.9167228622693
45620,-0.339949876070023,22.8299193880324
45730,-0.340985685586929,22.7431096698396
45840,-0.339742720127106,22.9167166183135
45950,-0.339949876070023,23.2205350220986
46060,-0.340571343898773,23.1771332849801
46170,-0.340364187955856,23.0903298107432
46280,-0.339742720127106,23.3941482145283
46390,-0.342021465301514,23.2205412660545
46490,-0.341399997472763,23.0035263365063
46600,-0.339949876070023,23.0469280736247
46710,-0.341192841529846,22.9601183554319
46820,-0.339949876070023,23.1337253039058
46930,-0.340157032012939,23.350740233454
47040,-0.34077849984169,23.0035200925504
47150,-0.340364187955856,23.0903235667873
47260,-0.340364187955856,23.0903235667873
47370,-0.34077849984169,22.7431034258837
47480,-0.340364187955856,22.6562999516468
47590,-0.340985685586929,22.7431034258837
47700,-0.341399997472763,22.6128919705725
47800,-0.340364187955856,22.4826867592171
47910,-0.341399997472763,22.1788683554319
48020,-0.340364187955856,22.1354666183135
48130,-0.34077849984169,22.0052614069581
48240,-0.340364187955856,21.8316544584842
48350,-0.339535564184189,22.0052614069581
48460,-0.340364187955856,22.0052614069581
48570,-0.340571343898773,22.0052614069581
48680,-0.340364187955856,21.9618596698396
48790,-0.339742720127106,22.5694964774099
48900,-0.34077849984169,22.4392912660545
49010,-0.339949876070023,22.6128982145283
49120,-0.341192841529846,22.4826867592171
49220,-0.341399997472763,22.3090735667873
49330,-0.340364187955856,22.4392850220986
49440,-0.34077849984169,22.4826930031729
49550,-0.340364187955856,22.6129044584842
49660,-0.339535564184189,22.7431096698396
49770,-0.340364187955856,22.8733211251509
49880,-0.340571343898773,23.0035325804621
49990,-0.339742720127106,23.2205412660545
50100,-0.341399997472763,22.7865114069581
50210,-0.34077849984169,22.6129044584842
50320,-0.340571343898773,22.7865176509139
50430,-0.339949876070023,22.9167228622693
50530,-0.341399997472763,22.7431096698396
50640,-0.340985685586929,22.6128982145283
50750,-0.340364187955856,22.6997016887653
50860,-0.341192841529846,22.3958832849801
50970,-0.340364187955856,22.5260947402914
51080,-0.341399997472763,22.1354728622693
51190,-0.34077849984169,22.1354728622693
51300,-0.341399997472763,21.9184579327211
51410,-0.34077849984169,21.6580475100103
51520,-0.340571343898773,21.7448572282031
51630,-0.340571343898773,21.8750686835144
51740,-0.340985685586929,21.83166070244
51850,-0.340364187955856,21.918464176677
51950,-0.339535564184189,22.2222825804621
52060,-0.340985685586929,22.1354728622693
52170,-0.339742720127106,22.3090798107432
52280,-0.340985685586929,22.092064881195
52390,-0.340364187955856,22.1354666183135
52500,-0.340571343898773,22.1354666183135
52610,-0.34077849984169,21.9618596698396
52720,-0.340571343898773,21.9184579327211
52830,-0.34077849984169,22.0486693880324
52940,-0.340571343898773,22.0486693880324
53050,-0.341399997472763,21.9184579327211
53160,-0.33932837843895,22.3090860546991
53260,-0.340157032012939,22.2222825804621
53370,-0.340571343898773,22.3524940357734
53480,-0.34077849984169,22.3524940357734
53590,-0.34077849984169,22.3524940357734
53700,-0.340571343898773,22.4393037539662
53810,-0.34077849984169,22.2656968054923
53920,-0.341814309358597,21.9184766645887
54030,-0.340985685586929,21.8316669463959
54140,-0.34077849984169,21.8316669463959
54250,-0.339742720127106,22.0052738948698
54360,-0.341399997472763,21.7014554910846
54470,-0.339742720127106,21.83166070244
54580,-0.340157032012939,22.0052738948698
54680,-0.339742720127106,22.3090922986549
54790,-0.340571343898773,22.3524940357734
54900,-0.34077849984169,22.3090922986549
55010,-0.34077849984169,22.3959020168477
55120,-0.340985685586929,22.61291070244
55230,-0.340364187955856,22.7865238948698
55340,-0.339742720127106,22.699714176677
55450,-0.34077849984169,22.699714176677
55560,-0.341192841529846,22.5695027213657
55670,-0.340985685586929,22.0486693880324
55780,-0.340157032012939,22.0486693880324
55890,-0.34077849984169,22.0920773691067
55990,-0.340157032012939,22.1788808433436
56100,-0.339535564184189,22.5261009842473
56210,-0.34077849984169,22.4826992471288
56320,-0.340985685586929,22.395889528936
56430,-0.340571343898773,22.2222825804621
56540,-0.339949876070023,22.6129044584842
56650,-0.339742720127106,22.7431096698396
56760,-0.341192841529846,22.6562999516468
56870,-0.340157032012939,22.6997016887653
56980,-0.34077849984169,22.7865114069581
57090,-0.340364187955856,22.7865114069581
57200,-0.340571343898773,22.6129044584842
57310,-0.340985685586929,22.2222763365063
57410,-0.342021465301514,22.0486693880324
57520,-0.340985685586929,21.9618596698396
57630,-0.34077849984169,21.9184579327211
57740,-0.340571343898773,21.7014492471288
57850,-0.340364187955856,21.8750624395585
57960,-0.340157032012939,22.1354791062252
58070,-0.340364187955856,22.1354791062252
58180,-0.340157032012939,22.4392975100103
58290,-0.34243580698967,22.3524877918175
58400,-0.340985685586929,22.4392912660545
58510,-0.34077849984169,22.3090860546991
58620,-0.340571343898773,22.3090860546991
58720,-0.341192841529846,22.3524877918175
58830,-0.340571343898773,22.1788808433436
58940,-0.340157032012939,21.9618659137954
59050,-0.34160715341568,21.6146457728918
59160,-0.340364187955856,21.6146457728918
59270,-0.341192841529846,21.3976308433436
59380,-0.34243580698967,21.0938124395585
59490,-0.341192841529846,20.9636009842473
59600,-0.340364187955856,20.8767975100103
59710,-0.340985685586929,20.8767975100103
59820,-0.34077849984169,20.659788824418
59930,-0.341814309358597,20.2691669463959
60040,-0.33932837843895,20.5295836130626
60140,-0.341399997472763,20.3125686835144
60250,-0.341192841529846,20.0087502797292
60360,-0.339535564184189,20.5295773691067
60470,-0.338914066553116,21.05041070244
60580,-0.340364187955856,20.9636072282031
60690,-0.340571343898773,21.0938186835144
60800,-0.339742720127106,21.1372204206328
60910,-0.340157032012939,21.1372204206328
61020,-0.341399997472763,21.0070089653216
61130,-0.340571343898773,20.9636072282031
61240,-0.340985685586929,20.8333957728918
61350,-0.339949876070023,21.0070027213657
61450,-0.341814309358597,20.7031843175806
61560,-0.340364187955856,20.8333957728918
61670,-0.34077849984169,20.9636072282031
61780,-0.340364187955856,20.9636072282031
61890,-0.341399997472763,20.9636072282031
62000,-0.340985685586929,20.8333957728918
62110,-0.342021465301514,20.5729791062252
62220,-0.340157032012939,20.6163808433436
62330,-0.340985685586929,20.3125624395585
62440,-0.340364187955856,20.3125624395585
62550,-0.340985685586929,20.2257527213657
62660,-0.342850118875504,19.7049193880324
62770,-0.34077849984169,19.48791070244
62870,-0.34077849984169,19.48791070244
62980,-0.340364187955856,19.4011072282031
63090,-0.340985685586929,19.4445089653216
63200,-0.34077849984169,19.5747204206328
63310,-0.341814309358597,19.2709020168477
63420,-0.340364187955856,19.3577054910846
63530,-0.341192841529846,19.1840922986549
63640,-0.341814309358597,18.7066669463959
63750,-0.340364187955856,18.7066669463959
63860,-0.341192841529846,18.5764554910846
63970,-0.339742720127106,18.5764554910846
64080,-0.340364187955856,18.7934704206328
64180,-0.339535564184189,19.0538808433436
64290,-0.341399997472763,18.8802676509139
64400,-0.341192841529846,18.6198509842473
64510,-0.339949876070023,18.9236693880324
64620,-0.340571343898773,19.0104791062252
64730,-0.340364187955856,19.0104791062252
64840,-0.340364187955856,19.1840922986549
64950,-0.341814309358597,18.8802738948698
65060,-0.340157032012939,19.1406905615364
65170,-0.341192841529846,19.0538808433436
65280,-0.341814309358597,18.9670773691067
65390,-0.340985685586929,18.9236693880324
65500,-0.34160715341568,18.7066544584842
65600,-0.340985685586929,18.6198447402914
65710,-0.340364187955856,18.7500561956027
65820,-0.340157032012939,18.7934579327211
65930,-0.340364187955856,18.6198509842473
66040,-0.341192841529846,18.5764492471288
66150,-0.340157032012939,18.4896457728918
66260,-0.342021465301514,18.2726370872995
66370,-0.341192841529846,18.0990238948698
66480,-0.34077849984169,18.0556221577513
66590,-0.340985685586929,18.012214176677
66700,-0.340985685586929,17.9254044584842
66810,-0.341399997472763,17.7951930031729
66910,-0.339949876070023,17.9253982145283
67020,-0.340985685586929,18.0122016887653
67130,-0.340571343898773,17.7517850220986
67240,-0.340571343898773,17.6649815478617
67350,-0.34077849984169,17.6215798107432
67460,-0.340985685586929,17.5781718296689
67570,-0.340571343898773,17.6215735667873
67680,-0.340364187955856,17.6649753039058
67790,-0.340157032012939,17.7951805152612
67900,-0.340157032012939,18.1424006561648
68010,-0.340157032012939,18.3160138485946
68120,-0.33932837843895,18.6198322523797
68230,-0.340364187955856,18.4896270410243
68330,-0.340571343898773,18.663240233454
68440,-0.340985685586929,18.4028235667873
68550,-0.340985685586929,18.2292103743576
68660,-0.341192841529846,17.9253919705725
68770,-0.34160715341568,17.7083770410243
68880,-0.340571343898773,17.7517787781428
68990,-0.339742720127106,17.9687874637351
69100,-0.340985685586929,17.9687874637351
69210,-0.341814309358597,17.66496905995
69320,-0.340571343898773,17.4913621114761
69430,-0.340985685586929,17.4479541304018
69540,-0.339742720127106,17.7517725341869
69650,-0.34160715341568,17.6215673228315
69750,-0.340364187955856,17.578165585713
69860,-0.34077849984169,17.578165585713
69970,-0.341399997472763,17.3177489190464
70080,-0.341192841529846,16.9705287781428
70190,-0.340364187955856,17.0573322523797
70300,-0.341192841529846,17.0139305152612
70410,-0.34077849984169,16.9705287781428
70520,-0.340157032012939,16.9271270410243
70630,-0.340571343898773,16.7535200925504
70740,-0.340364187955856,16.9271332849801
70850,-0.340571343898773,16.8403298107432
70960,-0.340985685586929,16.7969218296689
71060,-0.34160715341568,16.5365051630022
71170,-0.34077849984169,16.4931034258837
71280,-0.340571343898773,16.5799131440765
71390,-0.340571343898773,16.8837315478617
71500,-0.341192841529846,16.8403298107432
71610,-0.34077849984169,16.8403298107432
71720,-0.341192841529846,16.7101183554319
71830,-0.341192841529846,16.5365051630022
71940,-0.340571343898773,16.4497016887653
72050,-0.341192841529846,16.2760884963355
72160,-0.340364187955856,16.2326867592171
72270,-0.340985685586929,16.5365051630022
72380,-0.341814309358597,16.3628982145283
72480,-0.340364187955856,16.4497016887653
72590,-0.340364187955856,16.4931034258837
72700,-0.339742720127106,16.7969218296689
72810,-0.341814309358597,16.5365051630022
72920,-0.341192841529846,16.319490233454
73030,-0.339949876070023,16.6667103743576
73140,-0.340985685586929,16.5364989190464
73250,-0.340157032012939,16.7535138485946
73360,-0.340364187955856,17.187543707691
73470,-0.34077849984169,17.2743534258837
73580,-0.340364187955856,17.2743534258837
73690,-0.341814309358597,17.1007464774099
73790,-0.341399997472763,16.9705350220986
73900,-0.341192841529846,17.100740233454
74010,-0.340364187955856,16.8837253039058
74120,-0.34077849984169,17.0139367592171
74230,-0.339742720127106,17.3177551630022
74340,-0.34160715341568,16.8837315478617
74450,-0.340571343898773,16.5365114069581
74560,-0.339742720127106,16.6667166183135
74670,-0.341192841529846,16.5365051630022
74780,-0.341814309358597,16.1024815478617
74890,-0.340364187955856,16.0590798107432
75000,-0.34160715341568,16.0156780736247
75110,-0.34243580698967,15.6250499516468
75210,-0.34160715341568,15.4948447402914
75320,-0.339742720127106,15.5382464774099
75430,-0.341399997472763,15.6250499516468
75540,-0.341192841529846,15.4514367592171
75650,-0.340985685586929,15.4080287781428
75760,-0.339742720127106,15.5382339894982
75870,-0.340157032012939,15.7986506561648
75980,-0.339949876070023,16.015665585713
76090,-0.341192841529846,16.1892725341869
76200,-0.34077849984169,16.0590673228315
76310,-0.340157032012939,16.2326805152612
76420,-0.339949876070023,16.3194839894982
76520,-0.341192841529846,16.2760822523797
76630,-0.341399997472763,16.5799006561648
76740,-0.340157032012939,16.7101058675202
76850,-0.339949876070023,16.8837128159941
76960,-0.34077849984169,16.7969093417572
77070,-0.340571343898773,16.88371905995
77180,-0.339121222496033,17.2309392008536
77290,-0.340364187955856,17.5347576046387
77400,-0.340571343898773,17.4913558675202
77510,-0.340571343898773,17.6215673228315
77620,-0.340364187955856,17.9253857266166
77730,-0.339949876070023,18.0121892008536
77840,-0.34077849984169,18.0989989190464
77940,-0.340364187955856,17.968793707691
78050,-0.340985685586929,17.8385822523797
78160,-0.341192841529846,17.4913621114761
78270,-0.340157032012939,17.7517787781428
78380,-0.341192841529846,17.7517787781428
78490,-0.340985685586929,17.5347638485946
78600,-0.341192841529846,17.4045523932833
78710,-0.342021465301514,17.0573322523797
78820,-0.340571343898773,17.0139305152612
78930,-0.340571343898773,17.2743471819279
79040,-0.342850118875504,16.7101121114761
79150,-0.34077849984169,16.7969218296689
79250,-0.340985685586929,16.9705287781428
79360,-0.339949876070023,17.187543707691
79470,-0.340571343898773,17.4045586372392
79580,-0.339949876070023,17.6215735667873
79690,-0.340571343898773,17.5781718296689
79800,-0.340571343898773,17.4913683554319
79910,-0.340571343898773,17.4479666183135
80020,-0.339949876070023,17.7083832849801
80130,-0.34077849984169,17.5781780736247
80240,-0.339949876070023,18.0122016887653
80350,-0.341399997472763,17.9687999516468
80460,-0.33932837843895,18.2726183554319
80570,-0.340985685586929,18.2726183554319
80670,-0.342228621244431,18.0122079327211
80780,-0.340985685586929,18.0990114069581
80890,-0.340364187955856,18.0122079327211
81000,-0.340571343898773,18.0990176509139
81110,-0.340571343898773,18.0990176509139
81220,-0.340364187955856,18.1424193880324
81330,-0.339949876070023,18.3160263365063
81440,-0.341192841529846,18.2726245993878
81550,-0.340364187955856,18.3160263365063
81660,-0.340985685586929,18.185814881195
81770,-0.340985685586929,18.0122016887653
81880,-0.341814309358597,17.6649815478617
81980,-0.34160715341568,17.3611631440765
82090,-0.340364187955856,17.1441482145283
82200,-0.340364187955856,17.1441482145283
82310,-0.340157032012939,17.2309516887653
82420,-0.34077849984169,17.2743596698396
82530,-0.34160715341568,17.1441544584842
82640,-0.341192841529846,17.1441544584842
82750,-0.340157032012939,17.4479728622693
82860,-0.339949876070023,17.5781780736247
82970,-0.340364187955856,17.4479728622693
83080,-0.33932837843895,17.7951992471288
83190,-0.34077849984169,18.012214176677
83300,-0.339535564184189,18.2292228622693
83400,-0.340364187955856,18.3594343175806
83510,-0.34160715341568,17.9688124395585
83620,-0.339949876070023,18.3160325804621
83730,-0.341192841529846,18.1424193880324
83840,-0.340985685586929,18.0990114069581
83950,-0.339742720127106,18.4462315478617
84060,-0.340985685586929,18.4896332849801
84170,-0.341192841529846,18.3160200925504
84280,-0.339742720127106,18.6198384963355
84390,-0.341192841529846,18.5330287781428
84500,-0.340985685586929,18.359415585713
84610,-0.34077849984169,18.3160138485946
84710,-0.340985685586929,18.1858023932833
84820,-0.34077849984169,18.1424006561648
84930,-0.342021465301514,17.9253919705725
85040,-0.339742720127106,18.3160138485946
85150,-0.340571343898773,18.359415585713
85260,-0.340985685586929,18.2726058675202
85370,-0.34077849984169,18.2292041304018
85480,-0.341192841529846,18.2292041304018
85590,-0.341192841529846,18.142394412209
85700,-0.341192841529846,18.142394412209
85810,-0.34160715341568,18.055590937972
85920,-0.34160715341568,17.8385760084238
86030,-0.339949876070023,18.0989926750905
86130,-0.340571343898773,18.055590937972
86240,-0.341192841529846,18.0121892008536
86350,-0.339742720127106,18.4462128159941
86460,-0.340571343898773,18.4028110788756
86570,-0.341192841529846,18.2291978864459
86680,-0.340571343898773,18.055590937972
86790,-0.340985685586929,18.2291978864459
86900,-0.34077849984169,18.3160076046387
87010,-0.340364187955856,18.2292041304018
87120,-0.340985685586929,18.2292041304018
87230,-0.340157032012939,18.2292041304018
87340,-0.34077849984169,18.1424006561648
87440,-0.340571343898773,18.1858023932833
87550,-0.341399997472763,17.9687874637351
87660,-0.341192841529846,18.0989926750905
87770,-0.340571343898773,18.2726058675202
87880,-0.339535564184189,18.6198260084238
87990,-0.341192841529846,18.4462128159941
88100,-0.342228621244431,18.142394412209
88210,-0.34160715341568,17.7517725341869
88320,-0.340364187955856,18.0121892008536
88430,-0.34077849984169,17.9687874637351
88540,-0.341192841529846,17.66496905995
88650,-0.340571343898773,17.7951805152612
88760,-0.34160715341568,17.8385822523797
88860,-0.34160715341568,17.578165585713
88970,-0.341399997472763,17.6215673228315
89080,-0.342228621244431,17.6649753039058
89190,-0.341192841529846,17.7517787781428
89300,-0.340571343898773,17.5781718296689
89410,-0.340157032012939,17.8385884963355
89520,-0.340364187955856,18.0122016887653
89630,-0.340571343898773,18.0990114069581
89740,-0.34077849984169,17.8820027213657
89850,-0.340364187955856,17.8386009842473
89960,-0.341192841529846,17.5781843175806
90070,-0.340157032012939,17.7951992471288
90170,-0.339949876070023,17.9688061956027
90280,-0.339949876070023,18.0122079327211
90390,-0.340571343898773,17.8820027213657
90500,-0.341399997472763,17.8386009842473
90610,-0.341399997472763,17.8386009842473
90720,-0.340364187955856,17.7951992471288
90830,-0.33932837843895,17.92541070244
90940,-0.341814309358597,17.7083957728918
91050,-0.34160715341568,17.4913808433436
91160,-0.340985685586929,17.1007527213657
91270,-0.341399997472763,16.8837377918175
91380,-0.34160715341568,16.6667228622693
91490,-0.341192841529846,16.5365114069581
91590,-0.341399997472763,16.3194964774099
91700,-0.341192841529846,16.0590798107432
91810,-0.340985685586929,16.0156718296689
91920,-0.340364187955856,16.0156718296689
92030,-0.339742720127106,16.2760884963355
92140,-0.341399997472763,16.2326867592171
92250,-0.339949876070023,16.2760884963355
92360,-0.341192841529846,16.2760884963355
92470,-0.341399997472763,16.1892850220986
92580,-0.340364187955856,16.3628982145283
92690,-0.33932837843895,16.9271332849801
92800,-0.340571343898773,16.9271332849801
92900,-0.340571343898773,16.9271332849801
93010,-0.340571343898773,17.404564881195
93120,-0.340985685586929,17.3611569001207
93230,-0.340571343898773,17.4479666183135
93340,-0.341399997472763,17.1441482145283
93450,-0.34077849984169,17.1007464774099
93560,-0.341192841529846,16.8403298107432
93670,-0.340571343898773,16.8403298107432
93780,-0.341192841529846,16.7101183554319
93890,-0.340364187955856,16.7535200925504
94000,-0.340985685586929,16.5365051630022
94110,-0.34160715341568,16.3628919705725
94220,-0.339949876070023,16.3628919705725
94320,-0.340364187955856,16.5799069001207
94430,-0.340364187955856,16.3628919705725
94540,-0.342021465301514,16.1458832849801
94650,-0.339535564184189,16.7101121114761
94760,-0.34160715341568,16.5799069001207
94870,-0.339535564184189,16.7535138485946
94980,-0.341399997472763,16.5799006561648
95090,-0.342228621244431,16.2326805152612
95200,-0.340157032012939,16.2760822523797
95310,-0.339949876070023,16.2760822523797
95420,-0.339949876070023,16.5364989190464
95530,-0.340985685586929,16.4062874637351
95630,-0.34160715341568,16.2760822523797
95740,-0.340571343898773,16.3628919705725
95850,-0.341399997472763,16.4496954448094
95960,-0.340985685586929,16.5799006561648
96070,-0.340157032012939,16.6233023932833
96180,-0.341192841529846,16.4496892008536
96290,-0.340364187955856,16.4062874637351
96400,-0.341399997472763,16.2760760084238
96510,-0.339742720127106,16.6666978864459
96620,-0.341399997472763,16.6232961493275
96730,-0.340571343898773,16.5364926750905
96840,-0.340985685586929,16.3194777455423
96950,-0.340571343898773,16.2760760084238
97050,-0.341192841529846,15.8854478864459
97160,-0.33932837843895,16.1892662902311
97270,-0.339742720127106,16.1458645531126
97380,-0.34077849984169,16.0590610788756
97490,-0.34160715341568,16.0590610788756
97600,-0.342021465301514,15.6250374637351
97710,-0.341399997472763,15.5816357266166
97820,-0.340985685586929,15.5816357266166
97930,-0.340157032012939,15.4948322523797
98040,-0.340985685586929,15.4948322523797
98150,-0.341814309358597,15.3646270410243
98260,-0.34160715341568,14.9740051630022
98360,-0.340364187955856,15.1476183554319
98470,-0.340571343898773,15.2344280736247
98580,-0.340571343898773,15.2778298107432
98690,-0.341814309358597,15.1042228622693
98800,-0.34160715341568,14.9306096698396
98910,-0.340571343898773,15.2344280736247
99020,-0.341192841529846,14.9306096698396
99130,-0.34077849984169,14.8872079327211
99240,-0.340985685586929,14.8872079327211
99350,-0.34160715341568,14.7135947402914
99460,-0.341814309358597,14.583389528936
99570,-0.340571343898773,14.7136009842472
99680,-0.341192841529846,14.7136009842472
99780,-0.339535564184189,15.1476245993878
99890,-0.340157032012939,15.4514430031729
100000,-0.34160715341568,15.1042228622693
100110,-0.340364187955856,15.1476245993878
100220,-0.34160715341568,15.0608211251509
100330,-0.340157032012939,14.9740176509139
100440,-0.339949876070023,15.1042228622693
100550,-0.341192841529846,15.1042228622693
100660,-0.340157032012939,15.1910263365063
100770,-0.341192841529846,15.1476245993878
100880,-0.339535564184189,15.4080350220986
100990,-0.340364187955856,15.4080350220986
101090,-0.341399997472763,15.3212315478617
101200,-0.341399997472763,15.060814881195
101310,-0.34077849984169,15.060814881195
101420,-0.340364187955856,15.1042166183135
101530,-0.340571343898773,15.2778298107432
101640,-0.341192841529846,15.2778298107432
101750,-0.341814309358597,15.0174131440765
101860,-0.340157032012939,14.8872079327211
101970,-0.341192841529846,14.8872079327211
102080,-0.340985685586929,15.1476183554319
102190,-0.340985685586929,15.2778235667873
102300,-0.34077849984169,15.1910200925504
102410,-0.34160715341568,15.0174069001207
102510,-0.34077849984169,15.1042166183135
102620,-0.340157032012939,15.1910200925504
102730,-0.34077849984169,15.3646332849801
102840,-0.339742720127106,15.7552551630022
102950,-0.339949876070023,16.0590735667873
103060,-0.341814309358597,16.1458770410243
103170,-0.341814309358597,16.0156718296689
103280,-0.340985685586929,15.9288621114761
103390,-0.340571343898773,15.8420586372392
103500,-0.341192841529846,15.6684454448094
103610,-0.34077849984169,15.625043707691
103720,-0.340364187955856,15.7118471819279
103820,-0.34077849984169,15.625043707691
103930,-0.342021465301514,15.4514367592171
104040,-0.340985685586929,15.2778235667873
104150,-0.341192841529846,15.0174069001207
104260,-0.341399997472763,14.7135884963355
104370,-0.34077849984169,14.6701867592171
104480,-0.340571343898773,14.8437999516468
104590,-0.341399997472763,14.8437999516468
104700,-0.340157032012939,14.8872016887653
104810,-0.341814309358597,14.3663683554319
104920,-0.34160715341568,14.4097700925504
105030,-0.340571343898773,14.6267850220986
105140,-0.340985685586929,14.6267850220986
105240,-0.341399997472763,14.6267850220986
105350,-0.34077849984169,14.8003982145283
105460,-0.340571343898773,14.9306096698396
105570,-0.341192841529846,14.9740114069581
105680,-0.340571343898773,15.1042228622693
105790,-0.340157032012939,15.2778360546991
105900,-0.340364187955856,15.2778360546991
106010,-0.340571343898773,15.1042291062252
106120,-0.342021465301514,14.9740238948698
106230,-0.340985685586929,14.7570089653216
106340,-0.342021465301514,14.5834020168477
106450,-0.340571343898773,14.7570152092774
106550,-0.340364187955856,14.7570152092774
106660,-0.340364187955856,14.5400002797292
106770,-0.339949876070023,14.6702054910846
106880,-0.342021465301514,14.3663870872995
106990,-0.341399997472763,14.1927738948698
107100,-0.340985685586929,14.1927738948698
107210,-0.34160715341568,13.9757589653216
107320,-0.34160715341568,13.9323572282031
107430,-0.340364187955856,14.01916070244
107540,-0.340157032012939,14.2361756319882
107650,-0.34077849984169,14.1927738948698
107760,-0.341399997472763,14.1493721577513
107870,-0.340985685586929,14.01916070244
107970,-0.341192841529846,13.9757589653216
108080,-0.340571343898773,14.1927738948698
108190,-0.34160715341568,13.8455537539662
108300,-0.341399997472763,13.628538824418
108410,-0.340364187955856,13.628538824418
108520,-0.34077849984169,13.8889554910846
108630,-0.34077849984169,13.6285450683738
108740,-0.34077849984169,13.8021582608035
108850,-0.339949876070023,13.7153547865666
108960,-0.341399997472763,13.7153547865666
109070,-0.34160715341568,13.845559997922
109180,-0.341192841529846,13.6285450683738
109280,-0.340157032012939,13.5851433312553
109390,-0.34160715341568,13.2379231903517
109500,-0.34077849984169,13.2813311714261
109610,-0.340157032012939,13.5851495752112
109720,-0.34077849984169,13.5417478380927
109830,-0.340985685586929,13.6285513123297
109940,-0.34160715341568,13.4983461009743
110050,-0.342021465301514,13.1077242229522
110160,-0.340985685586929,13.1511259600707
110270,-0.340157032012939,13.1945276971891
110380,-0.342850118875504,12.890709293404
110490,-0.339742720127106,12.890709293404
110600,-0.341814309358597,12.803905819167
110700,-0.339949876070023,12.9341110305225
110810,-0.340985685586929,12.9341110305225
110920,-0.34077849984169,12.890709293404
111030,-0.341399997472763,12.8473075562855
111140,-0.339742720127106,12.7604978380927
111250,-0.341192841529846,12.4566794343076
111360,-0.340157032012939,12.586884645663
111470,-0.34160715341568,12.586884645663
111580,-0.342021465301514,12.586884645663
111690,-0.340985685586929,12.6736881198999
111800,-0.34160715341568,12.5434829085445
111910,-0.341192841529846,12.3264679789963
112010,-0.342021465301514,12.109459293404
112120,-0.341399997472763,12.1962627676409
112230,-0.342021465301514,12.109459293404
112340,-0.340985685586929,11.9792478380927
112450,-0.340157032012939,12.0660513123297
112560,-0.340364187955856,12.1094530494481
112670,-0.342021465301514,12.0660513123297
112780,-0.34077849984169,12.2396645047594
112890,-0.341399997472763,12.0660513123297
113000,-0.34077849984169,12.1528610305225
113110,-0.34160715341568,11.9792478380927
113220,-0.340985685586929,11.9792478380927
113330,-0.340571343898773,12.1962627676409
113430,-0.34160715341568,12.2396645047594
113540,-0.340571343898773,12.2396645047594
113650,-0.341399997472763,12.1962627676409
113760,-0.341814309358597,11.7188374153819
113870,-0.341814309358597,11.3716172744783
113980,-0.341399997472763,11.4150190115968
114090,-0.340985685586929,11.2848075562855
114200,-0.340985685586929,11.4150127676409
114310,-0.34077849984169,11.2848075562855
114420,-0.339742720127106,11.328209293404
114530,-0.341399997472763,11.2848075562855
114640,-0.34077849984169,11.1546023449301
114740,-0.340571343898773,11.2848138002414
114850,-0.340571343898773,11.067805114649
114960,-0.341399997472763,10.8507901851008
115070,-0.34160715341568,10.8073884479824
115180,-0.341399997472763,10.8073884479824
115290,-0.34077849984169,10.8073884479824
115400,-0.340157032012939,10.8507901851008
115510,-0.340571343898773,10.8507901851008
115620,-0.340985685586929,10.8941919222193
115730,-0.340985685586929,11.0677988706932
115840,-0.341399997472763,10.8073822040265
115950,-0.342228621244431,10.5903735184342
116060,-0.340364187955856,10.7205849737454
116160,-0.339742720127106,10.9810016404121
116270,-0.34077849984169,10.9810016404121
116380,-0.340985685586929,11.1112068517675
116490,-0.340157032012939,11.2414120631229
116600,-0.341399997472763,10.9809953964562
116710,-0.341399997472763,10.850783941145
116820,-0.341399997472763,10.5035638002414
116930,-0.341192841529846,10.2431471335747
117040,-0.340571343898773,10.5035638002414
117150,-0.340985685586929,10.6771707487152
117260,-0.341399997472763,10.5903672744783
117370,-0.340985685586929,10.5035575562855
117470,-0.340985685586929,10.546959293404
117580,-0.340157032012939,10.6771645047594
117690,-0.342850118875504,10.1563311714261
117800,-0.341399997472763,10.0261197161148
117910,-0.341192841529846,10.1997266645887
118020,-0.340985685586929,10.1997266645887
118130,-0.340364187955856,10.3733398570184
118240,-0.340364187955856,10.5903547865666
118350,-0.340985685586929,10.5469468054923
118460,-0.340985685586929,10.4601370872995
118570,-0.340571343898773,10.6337502797292
118680,-0.340571343898773,10.5469468054923
118790,-0.340157032012939,10.8941669463959
118890,-0.340571343898773,11.1111818759441
119000,-0.340571343898773,11.1111818759441
119110,-0.34077849984169,11.1545898570184
119220,-0.340571343898773,11.3282030494481
119330,-0.340364187955856,11.4150065236851
119440,-0.341192841529846,11.2847950683738
119550,-0.338706910610199,11.8056284017071
119660,-0.341192841529846,11.6754169463959
119770,-0.34077849984169,11.5452117350405
119880,-0.341399997472763,11.3281968054923
119990,-0.340985685586929,11.2413870872995
120100,-0.339949876070023,11.67541070244
120200,-0.34077849984169,11.7188186835144
120310,-0.340571343898773,12.0226370872995
120420,-0.340571343898773,12.0226370872995
120530,-0.34160715341568,11.7622204206328
120640,-0.34077849984169,11.6754169463959
120750,-0.341399997472763,11.3715985426108
120860,-0.341192841529846,11.5452054910846
120970,-0.34077849984169,11.6754169463959
121080,-0.34077849984169,11.7188249274702
121190,-0.34077849984169,11.8924381198999
121300,-0.341399997472763,11.9358398570184
121410,-0.34243580698967,11.501809997922
121520,-0.340571343898773,11.4150065236851
121620,-0.340571343898773,11.4584082608035
121730,-0.33932837843895,11.8924381198999
121840,-0.341399997472763,11.805634645663
121950,-0.340985685586929,11.8490363827815
122060,-0.340571343898773,11.8490363827815
122170,-0.341814309358597,11.805634645663
122280,-0.340571343898773,11.9792478380927
122390,-0.339535564184189,12.1528547865666
122500,-0.339949876070023,12.3264617350405
122610,-0.341192841529846,12.2396520168477
122720,-0.339949876070023,12.4132589653216
122830,-0.340364187955856,12.3264554910846
122930,-0.33932837843895,12.760485350181
123040,-0.341814309358597,12.7170836130626
123150,-0.341814309358597,12.5868784017071
123260,-0.340571343898773,12.5000749274702
123370,-0.340985685586929,12.6302801388256
123480,-0.34160715341568,12.4566669463959
123590,-0.340571343898773,12.369863472159
123700,-0.340571343898773,12.4132652092774
123810,-0.341192841529846,12.369863472159
123920,-0.340985685586929,12.5000686835144
124030,-0.340571343898773,12.8038870872995
124140,-0.341192841529846,12.760485350181
124250,-0.34160715341568,12.4566669463959
124350,-0.341399997472763,12.760485350181
124460,-0.341192841529846,12.4566669463959
124570,-0.340364187955856,12.760485350181
124680,-0.339742720127106,12.8038870872995
124790,-0.340364187955856,12.9340985426108
124900,-0.341399997472763,12.8038870872995
125010,-0.341814309358597,12.7170836130626
125120,-0.340571343898773,12.5434766645887
125230,-0.340985685586929,12.5868784017071
125340,-0.34160715341568,12.283059997922
125450,-0.341399997472763,12.3264617350405
125560,-0.34160715341568,12.4132652092774
125660,-0.342228621244431,12.1528547865666
125770,-0.340985685586929,12.283059997922
125880,-0.341399997472763,12.2396582608035
125990,-0.341399997472763,12.369863472159
126100,-0.340985685586929,12.4566669463959
126210,-0.341814309358597,12.5000686835144
126320,-0.34077849984169,12.5434766645887
126430,-0.341192841529846,12.3264617350405
126540,-0.342021465301514,11.9792415941369
126650,-0.341814309358597,12.0226433312553
126760,-0.339949876070023,12.1962502797292
126870,-0.341399997472763,12.1962502797292
126980,-0.340985685586929,12.1528422986549
127080,-0.340985685586929,12.2830475100103
127190,-0.340364187955856,12.4132589653216
127300,-0.339742720127106,12.5868659137954
127410,-0.340985685586929,12.7170711251509
127520,-0.34077849984169,12.6736693880324
127630,-0.341192841529846,12.7170711251509
127740,-0.340571343898773,12.9774877918175
127850,-0.340364187955856,13.2813061956027
127960,-0.341192841529846,13.3247079327211
128070,-0.339949876070023,13.5417228622693
128180,-0.340571343898773,13.6285325804621
128290,-0.340364187955856,13.7153360546991
128390,-0.340364187955856,13.5851308433436
128500,-0.34160715341568,13.5417291062252
128610,-0.341192841529846,13.4549193880324
128720,-0.340157032012939,13.5417228622693
128830,-0.340985685586929,13.4549131440765
128940,-0.340157032012939,13.7153298107432
129050,-0.341192841529846,13.8021332849801
129160,-0.341814309358597,13.7153298107432
129270,-0.34077849984169,13.7153298107432
129380,-0.34077849984169,13.5851245993878
129490,-0.339949876070023,13.7153298107432
129600,-0.341192841529846,13.6719280736247
129710,-0.340571343898773,13.7587377918175
129810,-0.340571343898773,13.9323509842472
129920,-0.341399997472763,14.1059579327211
130030,-0.34077849984169,14.0191544584842
130140,-0.340364187955856,13.8889492471288
130250,-0.340985685586929,13.8455412660545
130360,-0.341399997472763,13.7587377918175
130470,-0.340157032012939,13.7587377918175
130580,-0.340985685586929,13.8455412660545
130690,-0.34160715341568,13.802139528936
130800,-0.34160715341568,13.7587377918175
130910,-0.34160715341568,13.6719343175806
131020,-0.339949876070023,13.802139528936
131120,-0.34077849984169,13.8455475100103
131230,-0.34077849984169,13.9757589653216
131340,-0.341192841529846,13.9323572282031
131450,-0.340157032012939,14.1059704206328
131560,-0.341814309358597,13.7587502797292
131670,-0.34077849984169,14.1927801388256
131780,-0.340157032012939,14.4531968054923
131890,-0.339742720127106,14.7570152092774
132000,-0.34077849984169,14.8004231903517
132110,-0.34160715341568,14.5400065236851
132220,-0.342228621244431,14.149384645663
132330,-0.340157032012939,14.3229978380927
132440,-0.340985685586929,14.3229978380927
132540,-0.340985685586929,14.2361881198999
132650,-0.341192841529846,14.1059766645887
132760,-0.340571343898773,14.0191731903517
132870,-0.340985685586929,13.932363472159
132980,-0.34160715341568,13.7153485426108
133090,-0.340985685586929,13.6719405615364
133200,-0.34160715341568,13.4549256319882
133310,-0.339535564184189,13.6285325804621
133420,-0.342021465301514,13.4549256319882
133530,-0.34160715341568,12.847288824418
133640,-0.34160715341568,12.760485350181
133750,-0.340157032012939,12.8906905615364
133850,-0.34077849984169,13.0209020168477
133960,-0.342228621244431,12.7604915941369
134070,-0.340985685586929,12.5434766645887
134180,-0.342228621244431,12.2396582608035
134290,-0.341192841529846,12.1094468054923
134400,-0.341192841529846,11.979235350181
134510,-0.34160715341568,11.979235350181
134620,-0.341192841529846,11.8924256319882
134730,-0.341814309358597,11.8056221577513
134840,-0.340985685586929,11.8490238948698
134950,-0.341399997472763,11.7188124395585
135060,-0.341192841529846,11.6320027213657
135170,-0.341192841529846,11.5451930031729
135270,-0.340571343898773,11.7188061956027
135380,-0.341399997472763,11.9358211251509
135490,-0.34243580698967,11.5451930031729
135600,-0.340985685586929,11.4583832849801
135710,-0.34160715341568,10.9809516887653
135820,-0.34160715341568,10.9375499516468
135930,-0.341192841529846,10.8941482145283
136040,-0.342228621244431,10.5469280736247
136150,-0.342021465301514,10.5035263365063
136260,-0.34160715341568,10.2865114069581
136370,-0.341399997472763,9.89588952893599
136480,-0.340364187955856,9.80908605469905
136580,-0.34077849984169,9.89589577289184
136690,-0.341399997472763,9.59207736910671
136800,-0.341192841529846,9.41846417667698
136910,-0.341192841529846,9.02783605469905
137020,-0.34243580698967,8.89762459938779
137130,-0.342021465301514,8.85422286226932
137240,-0.340364187955856,8.89762459938779
137350,-0.340571343898773,8.98443431758058
137460,-0.341399997472763,9.02783605469905
137570,-0.340985685586929,8.94102633650626
137680,-0.341192841529846,8.810814881195
137790,-0.341192841529846,8.810814881195
137900,-0.34160715341568,8.6806096698396
138000,-0.340571343898773,8.6806096698396
138110,-0.340571343898773,8.81082112515085
138220,-0.339949876070023,9.15804126605446
138330,-0.341399997472763,9.15804126605446
138440,-0.341814309358597,9.02783605469905
138550,-0.341192841529846,8.85422286226932
138660,-0.340364187955856,8.72401765091391
138770,-0.339949876070023,8.81082112515085
138880,-0.340364187955856,9.02783605469905
138990,-0.340571343898773,9.28825272136572
139100,-0.342642962932587,8.85422286226932
139210,-0.34077849984169,8.89763084334364
139310,-0.340364187955856,9.15804751001031
139420,-0.341192841529846,9.20144924712878
139530,-0.340985685586929,9.33165445848419
139640,-0.339949876070023,9.8090798107432
139750,-0.340157032012939,9.98269300317293
139860,-0.341814309358597,9.89588952893599
139970,-0.340571343898773,10.0695027213657
140080,-0.339949876070023,10.2865176509139
140190,-0.341814309358597,10.2865176509139
140300,-0.340985685586929,10.2431096698396
140410,-0.34077849984169,10.3299193880324
140520,-0.341192841529846,10.5035263365063
140630,-0.342228621244431,10.4167228622693
140730,-0.342228621244431,9.93929751001031
140840,-0.34077849984169,10.0695089653216
140950,-0.34160715341568,9.93930375396616
141060,-0.341399997472763,9.85250027972922
141170,-0.341399997472763,9.63548535018102
141280,-0.340157032012939,9.54868187594409
141390,-0.341192841529846,9.50528013882562
141500,-0.340364187955856,9.59208361306256
141610,-0.340364187955856,9.76569680549228
141720,-0.341399997472763,9.59208361306256
141830,-0.34077849984169,9.50528013882562
141940,-0.340985685586929,9.54868187594409
142040,-0.340985685586929,9.33166694639589
142150,-0.340985685586929,9.2448572282031
142260,-0.340364187955856,9.2448572282031
142370,-0.341192841529846,9.07124403577337
142480,-0.34077849984169,9.2448572282031
142590,-0.341399997472763,9.20145549108463
142700,-0.34077849984169,9.07125027972922
142810,-0.34160715341568,8.94104506837381
142920,-0.340985685586929,8.76743187594409
143030,-0.34160715341568,8.68062840170715
143140,-0.34160715341568,8.72403013882562
143250,-0.342228621244431,8.42021173504048
143360,-0.341192841529846,8.33340201684769
143460,-0.340571343898773,8.20319680549228
143570,-0.34160715341568,8.11639333125535
143680,-0.342021465301514,7.81257492747021
143790,-0.341399997472763,7.63896173504048
143900,-0.340157032012939,7.89937840170715
144010,-0.34077849984169,7.89937840170715
144120,-0.341814309358597,7.59555999792201
144230,-0.341814309358597,7.42195304944813
144340,-0.342021465301514,7.29174783809273
144450,-0.34077849984169,7.16154262673732
144560,-0.34077849984169,7.20495060781164
144670,-0.340985685586929,7.33515581916705
144770,-0.340985685586929,7.46536103052246
144880,-0.340157032012939,7.76917943430759
144990,-0.34160715341568,7.42195929340398
145100,-0.34160715341568,7.24834610097426
145210,-0.341192841529846,7.16153638278147
145320,-0.341399997472763,7.118134645663
145430,-0.340364187955856,7.07473290854453
145540,-0.341399997472763,7.16153638278147
145650,-0.340571343898773,7.20493811989994
145760,-0.341399997472763,6.94452145323327
145870,-0.341192841529846,6.64070304944813
145980,-0.34160715341568,6.46708985701841
146090,-0.340157032012939,6.77090826080354
146190,-0.340571343898773,7.11812840170715
146300,-0.341399997472763,6.85771173504048
146410,-0.340571343898773,6.94452145323327
146520,-0.342228621244431,6.68411103052246
146630,-0.34077849984169,6.77092074871524
146740,-0.340157032012939,6.85772422295218
146850,-0.341399997472763,6.77092074871524
146960,-0.342228621244431,6.64071553735984
147070,-0.341814309358597,6.46710858888596
147180,-0.341192841529846,6.5539120631229
147290,-0.340571343898773,6.33690337753055
147400,-0.34160715341568,6.42370685176749
147510,-0.34243580698967,6.25009365933776
147610,-0.341399997472763,6.29349539645623
147720,-0.340985685586929,6.1198822040265
147830,-0.340364187955856,6.20668567826344
147940,-0.341399997472763,6.38029262673732
148050,-0.341192841529846,6.33689088961885
148160,-0.34160715341568,6.46709610097426
148270,-0.339535564184189,6.81431624187786
148380,-0.341192841529846,6.81431624187786
148490,-0.34160715341568,6.81431624187786
148600,-0.340985685586929,6.85771797899633
148710,-0.34077849984169,7.07473290854453
148820,-0.341399997472763,6.98792943430759
148920,-0.340364187955856,7.20494436385579
149030,-0.340985685586929,7.24834610097426
149140,-0.34077849984169,7.33515581916705
149250,-0.340364187955856,7.37855755628552
149360,-0.342642962932587,7.11814088961885
149470,-0.341399997472763,7.33515581916705
149580,-0.339949876070023,7.55217074871524
149690,-0.34077849984169,7.72578394114497
149800,-0.34077849984169,7.8993971335747
149910,-0.34160715341568,7.81259365933776
150020,-0.340985685586929,8.07300408204858
150130,-0.34160715341568,8.15980755628552
150240,-0.34160715341568,8.15980755628552
150340,-0.340571343898773,8.33342074871524
150450,-0.34160715341568,8.07300408204858
150560,-0.34077849984169,8.07300408204858
150670,-0.341399997472763,8.07300408204858
150780,-0.340985685586929,8.11640581916705
150890,-0.340571343898773,8.2466172744783
151000,-0.341192841529846,8.50703394114497
151110,-0.339742720127106,8.98445929340398
151220,-0.341192841529846,8.81084610097426
151330,-0.34160715341568,8.59383117142606
151440,-0.340571343898773,8.76744436385579
151550,-0.341192841529846,8.72404262673732
151650,-0.341814309358597,8.59383741538191
151760,-0.341399997472763,8.55043567826344
151870,-0.34077849984169,8.72404887069317
151980,-0.340571343898773,8.72404887069317
152090,-0.341399997472763,8.55043567826344
152200,-0.341399997472763,8.2466172744783
152310,-0.34077849984169,8.37682872978956
152420,-0.341814309358597,8.37682872978956
152530,-0.340364187955856,8.55044192221929
152640,-0.34077849984169,8.46363844798235
152750,-0.340364187955856,8.37683497374541
152860,-0.340364187955856,8.37683497374541
152970,-0.341814309358597,8.11641830707875
153070,-0.341399997472763,8.37683497374541
153180,-0.341814309358597,8.15982004419722
153290,-0.341399997472763,7.94280511464902
153400,-0.341399997472763,7.89940337753055
153510,-0.341192841529846,7.85600164041208
153620,-0.34077849984169,7.6823946919382
153730,-0.341399997472763,7.42197802527154
153840,-0.341399997472763,7.50878149950848
153950,-0.34077849984169,7.46537976239001
154060,-0.340364187955856,7.37857628815307
154170,-0.340364187955856,7.6823946919382
154280,-0.34243580698967,7.37857628815307
154380,-0.341192841529846,7.29176656996028
154490,-0.342021465301514,7.1181596214864
154600,-0.34243580698967,7.07475164041208
154710,-0.341399997472763,7.24835858888596
154820,-0.341399997472763,7.1181471335747
154930,-0.34160715341568,7.1181471335747
155040,-0.34077849984169,7.24835858888596
155150,-0.34160715341568,7.20495685176749
155260,-0.340364187955856,7.16155511464902
155370,-0.341192841529846,7.16155511464902
155480,-0.341399997472763,6.94454018510082
155590,-0.340985685586929,6.81432872978956
155700,-0.34077849984169,6.94454018510082
155800,-0.340364187955856,7.03134365933776
155910,-0.341399997472763,6.94454018510082
156020,-0.339742720127106,7.20495685176749
156130,-0.340985685586929,7.20495685176749
156240,-0.34160715341568,6.94454018510082
156350,-0.340985685586929,6.98794192221929
156460,-0.34160715341568,6.81432872978956
156570,-0.34077849984169,6.94454018510082
156680,-0.341814309358597,6.72752525555262
156790,-0.340157032012939,7.03134365933776
156900,-0.34077849984169,7.07475164041208
157010,-0.341814309358597,7.03134990329361
157110,-0.340985685586929,7.16155511464902
157220,-0.342228621244431,7.16155511464902
157330,-0.34160715341568,7.07475164041208
157440,-0.34077849984169,7.03134990329361
157550,-0.34077849984169,7.20496309572334
157660,-0.34077849984169,7.46537976239001
157770,-0.340157032012939,7.72579642905667
157880,-0.342642962932587,7.20496309572334
157990,-0.34243580698967,6.85773671086388
158100,-0.340571343898773,7.11815337753055
158210,-0.341814309358597,7.11815337753055
158320,-0.342228621244431,7.07475164041208
158430,-0.340985685586929,7.03134365933776
158530,-0.342021465301514,6.77092699267109
158640,-0.34160715341568,6.64072178131569
158750,-0.341192841529846,6.59732004419722
158860,-0.342021465301514,6.20669816617514
158970,-0.340364187955856,6.46711483284181
159080,-0.34077849984169,6.64072802527154
159190,-0.340985685586929,6.68412976239001
159300,-0.34077849984169,6.81434121770127
159410,-0.340985685586929,6.68412976239001
159520,-0.342021465301514,6.5539245510346
159630,-0.340985685586929,6.46711483284181
159740,-0.339742720127106,6.81433497374541
159840,-0.34077849984169,6.9011446919382
159950,-0.341192841529846,6.98794816617514
160060,-0.341399997472763,6.72753149950848
160170,-0.34160715341568,6.51051656996028
160280,-0.340157032012939,6.77093323662695
160390,-0.340985685586929,6.68412351843416
160500,-0.340364187955856,7.07474539645623
160610,-0.34160715341568,6.9011322040265
160720,-0.34077849984169,6.77092699267109
160830,-0.339949876070023,7.07474539645623
160940,-0.341814309358597,7.16154887069317
161050,-0.341814309358597,7.16154887069317
161160,-0.34077849984169,7.24835858888596
161260,-0.34077849984169,7.20495685176749
161370,-0.340364187955856,7.46537351843416
161480,-0.34077849984169,7.81259990329361
161590,-0.341192841529846,7.85600164041208
161700,-0.34077849984169,7.8994096214864
161810,-0.341192841529846,7.72579642905667
161920,-0.33932837843895,8.15982628815307
162030,-0.34160715341568,8.07302281391613
162140,-0.340364187955856,8.3334394805828
162250,-0.340985685586929,8.02962107679766
162360,-0.341399997472763,7.98621933967919
162470,-0.341192841529846,8.07302281391613
162570,-0.342228621244431,7.81261239120531
162680,-0.34160715341568,7.63899919877559
162790,-0.340985685586929,7.72580267301252
162900,-0.340985685586929,7.59559121770127
163010,-0.340364187955856,7.72580267301252
163120,-0.341399997472763,7.59559121770127
163230,-0.34243580698967,7.16156135860487
163340,-0.34243580698967,7.20496309572334
163450,-0.34160715341568,7.16156135860487
163560,-0.341814309358597,6.7709394805828
163670,-0.341814309358597,6.5539245510346
163780,-0.340571343898773,6.59732628815307
163890,-0.341399997472763,6.64072802527154
163990,-0.339535564184189,6.94454642905667
164100,-0.34160715341568,6.94454642905667
164210,-0.341814309358597,6.9011446919382
164320,-0.342228621244431,6.5539245510346
164430,-0.34077849984169,6.72753774346433
164540,-0.341399997472763,6.59732628815307
164650,-0.340985685586929,6.68412976239001
164760,-0.340571343898773,6.7709394805828
164870,-0.341399997472763,6.59732628815307
164980,-0.34077849984169,6.68413600634586
165090,-0.340157032012939,6.59733253210892
165200,-0.340985685586929,6.64073426922739
165300,-0.34243580698967,6.46712107679766
165410,-0.341399997472763,6.29350788436793
165520,-0.34077849984169,6.38031760256072
165630,-0.341399997472763,6.46712107679766
165740,-0.341399997472763,6.46712107679766
165850,-0.341399997472763,6.3369096214864
165960,-0.341814309358597,6.07649295481973
166070,-0.341192841529846,6.1198946919382
166180,-0.340364187955856,6.3369096214864
166290,-0.341192841529846,6.25009990329361
166400,-0.34077849984169,6.46711483284181
166510,-0.34243580698967,6.03308497374541
166620,-0.34077849984169,6.03308497374541
166720,-0.340571343898773,5.98968323662695
166830,-0.340985685586929,5.85947178131569
166940,-0.341814309358597,5.85947178131569
167050,-0.342228621244431,5.68586483284181
167160,-0.34160715341568,5.72926656996028
167270,-0.340157032012939,5.98968323662695
167380,-0.340364187955856,6.20669816617514
167490,-0.340985685586929,6.25009990329361
167600,-0.339949876070023,6.42370685176749
167710,-0.342021465301514,6.29350164041208
167820,-0.341192841529846,6.33690337753055
167930,-0.341814309358597,6.11988844798235
168030,-0.339949876070023,6.20669192221929
168140,-0.34077849984169,6.11988844798235
168250,-0.342228621244431,6.16329642905667
168360,-0.340571343898773,6.29350788436793
168470,-0.341399997472763,6.42371309572334
168580,-0.341814309358597,6.5539245510346
168690,-0.342021465301514,6.42371933967919
168800,-0.340571343898773,6.59733253210892
168910,-0.340985685586929,6.72753774346433
169020,-0.340571343898773,6.7709394805828
169130,-0.342228621244431,6.64073426922739
169240,-0.34077849984169,6.55393079499045
169350,-0.340571343898773,6.68414225030171
169450,-0.340571343898773,6.85775544273144
169560,-0.342021465301514,6.64074675713909
169670,-0.340157032012939,6.7709519684945
169780,-0.34077849984169,6.68414849425756
169890,-0.34160715341568,6.64074675713909
170000,-0.340364187955856,6.51054154578368
170110,-0.342021465301514,6.29353286019134
170220,-0.340364187955856,6.553949526858
170330,-0.340157032012939,6.72756271928773
170440,-0.34160715341568,6.72756271928773
170550,-0.342228621244431,6.42374431550259
170660,-0.340985685586929,6.59735126397647
170760,-0.341399997472763,6.3369345973098
170870,-0.34077849984169,6.3369345973098
170980,-0.340985685586929,6.51054154578368
171090,-0.340985685586929,6.51054154578368
171200,-0.340157032012939,6.94456516092422
171310,-0.340571343898773,7.16158009047242
171420,-0.341399997472763,7.03136863516116
171530,-0.340985685586929,6.98796065408684
171640,-0.340157032012939,7.11816586544225
171750,-0.340985685586929,6.94455267301252
171860,-0.339949876070023,7.50878774346433
171970,-0.341192841529846,7.76920441013099
172080,-0.34077849984169,7.72580267301252
172180,-0.341814309358597,7.72580267301252
172290,-0.341399997472763,7.8994096214864
172400,-0.341814309358597,7.72580267301252
172510,-0.341399997472763,7.85600788436793
172620,-0.34077849984169,8.02962107679766
172730,-0.34077849984169,8.11643079499045
172840,-0.339949876070023,8.55045441013099
172950,-0.341814309358597,8.24663600634586
173060,-0.342021465301514,7.98621933967919
173170,-0.342021465301514,7.76921065408684
173280,-0.340157032012939,7.89941586544225
173390,-0.341399997472763,7.81261239120531
173490,-0.340571343898773,8.11643079499045
173600,-0.341814309358597,7.94282384651657
173710,-0.34243580698967,7.37858877606477
173820,-0.341399997472763,7.24837732075351
173930,-0.34077849984169,7.3351870389463
174040,-0.34077849984169,7.46539849425756
174150,-0.341192841529846,7.5522019684945
174260,-0.340364187955856,7.50880023137603
174370,-0.340157032012939,7.68241342380576
174480,-0.341192841529846,7.50880023137603
174590,-0.341814309358597,7.46539849425756
174700,-0.341814309358597,7.24838356470936
174810,-0.341814309358597,6.85776168668729
174910,-0.34077849984169,7.07477661623548
175020,-0.341399997472763,7.16158009047242
175130,-0.341399997472763,7.03136863516116
175240,-0.34160715341568,6.85775544273144
175350,-0.34077849984169,6.7709519684945
175460,-0.34160715341568,6.59733877606477
175570,-0.339949876070023,6.85775544273144
175680,-0.340985685586929,6.81434746165712
175790,-0.340571343898773,6.94455891696837
175900,-0.342021465301514,6.38032384651657
176010,-0.341399997472763,6.42372558363504
176120,-0.34160715341568,6.16330891696837
176220,-0.340157032012939,6.3369221093981
176330,-0.341399997472763,6.3369221093981
176440,-0.340985685586929,6.38032384651657
176550,-0.342021465301514,6.42372558363504
176660,-0.341814309358597,6.38032384651657
176770,-0.341192841529846,6.3369221093981
176880,-0.341399997472763,6.25011863516116
176990,-0.34160715341568,5.9897019684945
177100,-0.339742720127106,6.3369221093981
177210,-0.34160715341568,6.51053530182783
177320,-0.339949876070023,7.03136863516116
177430,-0.341399997472763,7.07477037227963
177540,-0.340364187955856,7.37858877606477
177640,-0.341399997472763,7.46539225030171
177750,-0.340571343898773,7.46539225030171
177860,-0.341192841529846,7.50879398742018
177970,-0.342021465301514,6.98796689804269
178080,-0.340364187955856,7.24838356470936
178190,-0.341814309358597,7.24838356470936
178300,-0.340364187955856,7.63900544273144
178410,-0.34160715341568,7.46539225030171
178520,-0.341399997472763,7.46539225030171
178630,-0.340985685586929,7.46539225030171
178740,-0.340985685586929,7.37858253210892
178850,-0.341399997472763,7.37858253210892
178950,-0.340985685586929,7.3351745510346
179060,-0.340571343898773,7.24837107679766
179170,-0.340364187955856,7.37858253210892
179280,-0.34077849984169,7.72580891696837
179390,-0.341399997472763,7.72580891696837
179500,-0.34160715341568,7.55219572453865
179610,-0.341192841529846,7.59559746165712
179720,-0.340571343898773,7.76921065408684
179830,-0.342228621244431,7.59560370561297
179940,-0.342021465301514,7.5522019684945
180050,-0.339949876070023,7.81261863516116
180160,-0.340571343898773,7.76921689804269
180270,-0.341399997472763,7.72581516092422
180370,-0.341192841529846,7.63900544273144
180480,-0.339949876070023,8.15983877606477
180590,-0.34243580698967,7.81261239120531
180700,-0.34160715341568,7.59559746165712
180810,-0.34160715341568,7.46539225030171
180920,-0.34077849984169,7.68240717984991
181030,-0.340571343898773,8.02962732075351
181140,-0.34077849984169,8.20324051318324
181250,-0.34160715341568,7.8994221093981
181360,-0.339949876070023,7.98622558363504
181470,-0.34077849984169,8.02963356470936
181580,-0.340985685586929,7.81261863516116
181680,-0.341399997472763,7.94282384651657
181790,-0.340985685586929,7.98622558363504
181900,-0.341192841529846,8.11643079499045
182010,-0.340571343898773,7.98622558363504
182120,-0.34077849984169,7.98622558363504
182230,-0.34160715341568,8.11643079499045
182340,-0.341192841529846,7.98621933967919
182450,-0.34160715341568,7.94281760256072
182560,-0.342021465301514,7.89941586544225
182670,-0.340571343898773,8.20323426922739
182780,-0.340985685586929,8.1164245510346
182890,-0.340571343898773,8.20323426922739
183000,-0.341192841529846,8.07302281391613
183100,-0.341399997472763,8.24662976239001
183210,-0.34160715341568,8.07301656996028
183320,-0.340157032012939,8.15982004419722
183430,-0.340571343898773,8.15982004419722
183540,-0.341192841529846,8.33342699267109
183650,-0.340985685586929,8.15981380024137
183760,-0.341192841529846,8.07300408204858
183870,-0.341192841529846,8.15980755628552
183980,-0.341399997472763,7.94279262673732
184090,-0.340364187955856,8.29001276764092
184200,-0.341192841529846,8.1163995752112
184310,-0.341814309358597,7.76917943430759
184410,-0.34160715341568,7.76917943430759
184520,-0.340157032012939,8.20320304944813
184630,-0.341192841529846,8.15980131232966
184740,-0.340985685586929,8.2466047865666
184850,-0.340571343898773,8.29000652368507
184960,-0.341399997472763,8.20320304944813
185070,-0.340157032012939,8.37681624187786
185180,-0.341192841529846,8.15980131232966
185290,-0.340985685586929,8.07299159413688
185400,-0.340985685586929,8.15979506837381
185510,-0.34160715341568,8.02958985701841
185620,-0.340364187955856,7.98618811989994
185730,-0.340571343898773,8.07299783809273
185830,-0.341814309358597,7.68237596007065
185940,-0.341814309358597,7.55217074871524
186050,-0.340571343898773,7.59557248583371
186160,-0.342850118875504,7.37855755628552
186270,-0.342228621244431,7.20495060781164
186380,-0.34243580698967,7.07473915250038
186490,-0.339949876070023,7.37855755628552
186600,-0.340985685586929,7.3351495752112
186710,-0.340157032012939,7.4653547865666
186820,-0.340157032012939,7.42195304944813
186930,-0.341192841529846,7.55215826080354
187040,-0.342021465301514,7.55215826080354
187140,-0.341399997472763,7.68236347215895
187250,-0.34077849984169,7.55215826080354
187360,-0.340571343898773,7.72577145323327
187470,-0.341192841529846,7.59555999792201
187580,-0.340364187955856,7.89937840170715
187690,-0.340571343898773,8.29000652368507
187800,-0.340571343898773,8.4636197161148
187910,-0.34160715341568,8.29000652368507
188020,-0.34077849984169,8.29000652368507
188130,-0.341814309358597,8.15980131232966
188240,-0.340985685586929,8.02958985701841
188350,-0.34077849984169,7.899384645663
188460,-0.340364187955856,8.07299783809273
188560,-0.341399997472763,8.15980131232966
188670,-0.341814309358597,8.15980131232966
188780,-0.341814309358597,8.15980131232966
188890,-0.34077849984169,8.15980131232966
189000,-0.341399997472763,8.15980131232966
189110,-0.34160715341568,8.1163995752112
189220,-0.34160715341568,8.1163995752112
189330,-0.341192841529846,8.02958985701841
189440,-0.341814309358597,7.98618811989994
189550,-0.341399997472763,7.6823697161148
189660,-0.34160715341568,7.55216450475939
189770,-0.340985685586929,7.4653547865666
189870,-0.341399997472763,7.59555999792201
189980,-0.341399997472763,7.59555999792201
190090,-0.340571343898773,7.81257492747021
190200,-0.340571343898773,7.72577145323327
190310,-0.34160715341568,7.6823697161148
190420,-0.341192841529846,7.63896797899633
190530,-0.340985685586929,7.85597666458868
190640,-0.342228621244431,7.76917319035174
190750,-0.340364187955856,7.94278638278147
190860,-0.34160715341568,7.899384645663
190970,-0.341814309358597,7.85598290854453
191080,-0.341814309358597,7.42195929340398
191190,-0.34077849984169,7.59557248583371
191290,-0.34077849984169,7.42196553735984
191400,-0.340985685586929,7.50876901159678
191510,-0.340985685586929,7.37855755628552
191620,-0.341399997472763,7.37855755628552
191730,-0.34077849984169,7.33515581916705
191840,-0.34160715341568,7.24835234493011
191950,-0.341399997472763,7.37855755628552
192060,-0.340571343898773,7.33515581916705
192170,-0.341814309358597,7.33515581916705
192280,-0.341192841529846,7.16154262673732
192390,-0.341399997472763,7.20494436385579
192500,-0.341192841529846,7.24834610097426
192600,-0.340157032012939,7.42195929340398
192710,-0.342021465301514,7.20495060781164
192820,-0.341399997472763,7.20495060781164
192930,-0.341399997472763,7.1181471335747
193040,-0.341192841529846,6.98793567826344
193150,-0.341192841529846,6.81432248583371
193260,-0.341399997472763,6.68411103052246
193370,-0.34160715341568,6.64070929340398
193480,-0.341192841529846,6.72751276764092
193590,-0.341814309358597,6.59730755628552
193700,-0.340985685586929,6.51049783809273
193810,-0.340157032012939,6.94452145323327
193920,-0.341399997472763,7.07472666458868
194020,-0.340571343898773,6.94452145323327
194130,-0.34160715341568,6.72750652368507
194240,-0.342021465301514,6.59730131232967
194350,-0.341192841529846,6.59730131232967
194460,-0.340571343898773,6.46709610097426
194570,-0.341399997472763,6.68411103052246
194680,-0.341814309358597,6.64070929340398
194790,-0.342228621244431,6.51050408204858
194900,-0.34160715341568,6.33689088961885
195010,-0.341814309358597,6.07647422295218
195120,-0.340571343898773,6.11987596007065
195230,-0.342021465301514,6.03307248583371
195340,-0.340985685586929,5.81605755628552
195440,-0.342850118875504,5.38202769718912
195550,-0.34160715341568,5.25182248583371
195660,-0.341192841529846,5.29522422295218
195770,-0.340364187955856,5.42543567826344
195880,-0.342642962932587,5.12161727447831
195990,-0.340364187955856,5.16501901159677
196100,-0.34160715341568,4.99140581916705
196210,-0.34077849984169,5.16501901159677
196320,-0.341814309358597,5.03481380024137
196430,-0.34160715341568,5.03481380024137
196540,-0.342021465301514,5.03481380024137
196650,-0.34160715341568,4.81779887069317
196750,-0.339742720127106,5.07821553735984
196860,-0.340985685586929,4.99140581916705
196970,-0.342021465301514,4.81779887069317
197080,-0.340571343898773,4.9914120631229
197190,-0.341192841529846,5.07821553735984
197300,-0.341192841529846,4.86120060781164
197410,-0.341399997472763,4.68758741538191
197520,-0.34077849984169,4.7743971335747
197630,-0.341399997472763,4.68759365933776
197740,-0.34160715341568,4.60079018510082
197850,-0.340985685586929,4.64419192221929
197960,-0.340364187955856,4.86120685176749
198060,-0.342021465301514,4.51398671086388
198170,-0.341192841529846,4.51398671086388
198280,-0.341192841529846,4.64419192221929
198390,-0.341814309358597,4.60079018510082
198500,-0.340985685586929,4.42717699267109
198610,-0.340364187955856,4.60079018510082
198720,-0.341192841529846,4.55738844798235
198830,-0.341192841529846,4.42717699267109
198940,-0.341192841529846,4.47057872978956
199050,-0.342021465301514,4.07995685176749
199160,-0.339949876070023,4.34037351843416
199270,-0.340364187955856,4.47058497374541
199380,-0.340985685586929,4.47058497374541
199480,-0.34077849984169,4.64419816617514
199590,-0.340364187955856,4.64419816617514
199700,-0.342228621244431,4.29697802527154
199810,-0.340157032012939,4.64419816617514
199920,-0.341399997472763,4.73100164041208
200030,-0.340985685586929,4.64419192221929
200140,-0.341192841529846,4.9914120631229
200250,-0.342021465301514,5.03481380024137
200360,-0.341192841529846,5.29523046690803
200470,-0.341814309358597,4.90460858888596
200580,-0.340571343898773,4.99141830707875
200690,-0.340985685586929,4.81780511464902
200790,-0.341399997472763,4.55738844798235
200900,-0.340985685586929,4.60079018510082
201010,-0.34160715341568,4.68759365933776
201120,-0.34077849984169,4.81780511464902
201230,-0.341192841529846,4.73099539645623
201340,-0.340157032012939,4.81779887069317
201450,-0.340364187955856,4.9914120631229
201560,-0.340364187955856,4.9914120631229
201670,-0.342021465301514,4.68759365933776
201780,-0.34077849984169,4.64419192221929
201890,-0.342228621244431,4.51398671086388
202000,-0.342021465301514,4.25357004419722
202110,-0.34160715341568,4.29697178131569
202210,-0.341192841529846,4.25357004419722
202320,-0.34160715341568,4.07995685176749
202430,-0.341814309358597,3.77613844798235
202540,-0.340571343898773,3.94975164041208
202650,-0.339742720127106,4.38377525555263
202760,-0.341814309358597,4.38377525555263
202870,-0.341814309358597,4.16676032600443
202980,-0.342021465301514,4.03655511464902
203090,-0.341399997472763,4.07995685176749
203200,-0.340985685586929,4.2101620631229
203310,-0.341814309358597,4.07995685176749
203420,-0.341814309358597,4.07995685176749
203520,-0.341399997472763,4.07995685176749
203630,-0.341192841529846,4.16676032600443
203740,-0.342021465301514,3.94975164041208
203850,-0.34077849984169,4.07996309572334
203960,-0.340364187955856,4.29697802527154
204070,-0.342021465301514,3.9931596214864
204180,-0.34077849984169,3.94975788436793
204290,-0.342642962932587,3.73274295481973
204400,-0.341814309358597,3.60253774346433
204510,-0.34077849984169,3.64594572453865
204620,-0.341399997472763,3.81955267301252
204730,-0.341814309358597,3.51573426922739
204840,-0.340364187955856,3.77615093589405
204940,-0.340985685586929,3.94975788436793
205050,-0.342021465301514,3.90635614724946
205160,-0.340985685586929,3.86294816617514
205270,-0.340571343898773,3.90634990329361
205380,-0.342021465301514,3.68934121770127
205490,-0.340985685586929,3.68934121770127
205600,-0.341192841529846,3.73274295481973
205710,-0.340985685586929,3.68933497374541
205820,-0.342228621244431,3.55912976239001
205930,-0.340985685586929,3.64593323662695
206040,-0.342021465301514,3.34211483284181
206150,-0.341192841529846,3.47232004419722
206250,-0.34077849984169,3.55912976239001
206360,-0.34160715341568,3.51572802527154
206470,-0.340985685586929,3.55912976239001
206580,-0.340985685586929,3.38551656996028
206690,-0.342850118875504,3.21190337753055
206800,-0.341814309358597,3.12509990329361
206910,-0.339535564184189,3.51572178131569
207020,-0.340985685586929,3.55912351843416
207130,-0.341399997472763,3.51572178131569
207240,-0.340157032012939,3.77613844798235
207350,-0.340364187955856,4.03655511464902
207460,-0.341399997472763,3.99315337753055
207570,-0.341399997472763,4.07995685176749
207670,-0.34077849984169,4.12336483284181
207780,-0.340985685586929,3.94975164041208
207890,-0.34160715341568,3.90634990329361
208000,-0.340985685586929,3.81954018510082
208110,-0.340364187955856,4.07995685176749
208220,-0.341399997472763,4.2101620631229
208330,-0.34077849984169,4.29697178131569
208440,-0.341814309358597,4.03655511464902
208550,-0.340985685586929,4.12335858888596
208660,-0.340985685586929,4.29696553735984
208770,-0.341399997472763,4.47057248583371
208880,-0.34077849984169,4.64418567826344
208980,-0.34077849984169,4.86120060781164
209090,-0.340985685586929,4.77439088961885
209200,-0.341192841529846,4.94799783809273
209310,-0.341814309358597,4.77439088961885
209420,-0.340571343898773,5.25182248583371
209530,-0.34160715341568,5.25182248583371
209640,-0.339949876070023,5.51223915250038
209750,-0.341192841529846,5.33862596007065
209860,-0.340985685586929,5.68584610097426
209970,-0.340157032012939,5.72924783809273
210080,-0.340364187955856,5.98966450475939
210190,-0.342021465301514,5.72924783809273
210300,-0.340985685586929,5.9028547865666
210400,-0.341399997472763,5.94625652368507
210510,-0.340571343898773,6.25007492747021
210620,-0.34160715341568,6.25007492747021
210730,-0.341399997472763,5.9028547865666
210840,-0.340571343898773,5.98966450475939
210950,-0.341399997472763,6.1198697161148
211060,-0.341192841529846,5.98965826080354
211170,-0.34077849984169,6.07646797899633
211280,-0.341399997472763,6.03306624187786
211390,-0.341399997472763,6.03306624187786
211500,-0.340985685586929,5.98965826080354
211610,-0.339742720127106,6.33687840170715
211710,-0.340985685586929,6.46708361306256
211820,-0.34077849984169,6.51049159413688
211930,-0.340157032012939,6.55389333125535
212040,-0.342021465301514,6.55389333125535
212150,-0.34077849984169,6.64070304944813
212260,-0.34160715341568,6.5538995752112
212370,-0.342228621244431,6.46709610097426
212480,-0.34305727481842,6.03307248583371
212590,-0.341814309358597,5.72925408204858
212700,-0.340571343898773,5.85946553735984
212810,-0.341399997472763,5.81606380024137
212920,-0.342642962932587,5.51224539645623
213030,-0.340985685586929,5.72925408204858
213130,-0.34160715341568,5.38203394114497
213240,-0.341192841529846,5.20842074871524
213350,-0.341192841529846,5.16501901159677
213460,-0.340157032012939,5.29522422295218
213570,-0.33932837843895,5.51223915250038
213680,-0.340985685586929,5.7726495752112
213790,-0.341399997472763,5.51223290854453
213900,-0.34160715341568,5.46883117142606
214010,-0.341814309358597,5.29522422295218
214120,-0.341192841529846,5.29522422295218
214230,-0.340985685586929,5.51223290854453
214340,-0.340571343898773,5.64244436385579
214440,-0.342021465301514,5.59904262673732
214550,-0.34160715341568,5.38202769718912
214660,-0.342021465301514,5.16501901159677
214770,-0.340571343898773,5.3386322040265
214880,-0.341399997472763,5.25182872978956
214990,-0.341399997472763,5.29523046690803
215100,-0.339742720127106,5.51223915250038
215210,-0.34077849984169,5.59904887069317
215320,-0.340157032012939,5.59904887069317
215430,-0.340985685586929,5.46883741538191
215540,-0.34077849984169,5.38203394114497
215650,-0.342228621244431,5.3386322040265
215760,-0.34160715341568,5.16501901159677
215860,-0.340157032012939,5.59904262673732
215970,-0.34077849984169,5.85945929340398
216080,-0.342642962932587,5.64244436385579
216190,-0.34077849984169,5.72925408204858
216300,-0.340571343898773,5.94626901159677
216410,-0.341192841529846,6.07647422295218
216520,-0.340364187955856,6.11987596007065
216630,-0.340571343898773,5.94626901159677
216740,-0.340571343898773,6.20668567826344
216850,-0.34160715341568,6.25008741538191
216960,-0.341192841529846,6.42369436385579
217070,-0.34160715341568,6.38029262673732
217170,-0.341192841529846,6.33689088961885
217280,-0.34077849984169,6.55390581916705
217390,-0.34077849984169,6.77092074871524
217500,-0.341192841529846,6.81432248583371
217610,-0.342228621244431,6.59731380024137
217720,-0.342850118875504,6.42370060781164
217830,-0.340571343898773,6.46710234493011
217940,-0.341814309358597,6.16328394114497
218050,-0.341814309358597,6.20668567826344
218160,-0.340985685586929,6.16327769718912
218270,-0.341399997472763,6.42369436385579
218380,-0.340985685586929,6.59730131232967
218490,-0.341192841529846,6.51049159413688
218590,-0.34077849984169,6.64070304944813
218700,-0.34160715341568,6.6841047865666
218810,-0.34077849984169,6.59730131232967
218920,-0.340571343898773,6.68411103052246
219030,-0.34077849984169,6.94452769718912
219140,-0.341192841529846,6.90112596007065
219250,-0.341814309358597,6.64070929340398
219360,-0.342021465301514,6.64070929340398
219470,-0.340985685586929,6.64070929340398
219580,-0.341192841529846,6.64070929340398
219690,-0.341814309358597,6.46710234493011
219800,-0.340985685586929,6.72751276764092
219900,-0.340985685586929,6.72751276764092
220010,-0.341192841529846,6.9011197161148
220120,-0.340985685586929,6.94452145323327
220230,-0.340571343898773,6.98792319035174
220340,-0.341399997472763,7.03132492747021
220450,-0.34160715341568,6.9011197161148
220560,-0.34160715341568,6.77091450475939
220670,-0.340985685586929,7.16153638278147
220780,-0.341814309358597,7.16153638278147
220890,-0.341399997472763,6.77091450475939
221000,-0.340571343898773,6.85772422295218
221110,-0.342021465301514,6.72751901159678
221220,-0.342021465301514,6.3368971335747
221320,-0.34160715341568,6.07648046690803
221430,-0.341192841529846,6.1198822040265
221540,-0.341399997472763,6.1198822040265
221650,-0.340985685586929,6.07647422295218
221760,-0.341192841529846,6.03307248583371
221870,-0.34077849984169,6.20668567826344
221980,-0.341814309358597,6.03307872978956
222090,-0.34077849984169,5.94627525555263
222200,-0.340364187955856,6.16329018510082
222310,-0.34160715341568,5.98967699267109
222420,-0.340985685586929,6.16328394114497
222530,-0.341399997472763,6.07648046690803
222630,-0.341814309358597,5.90287351843416
222740,-0.341814309358597,5.81607004419722
222850,-0.341814309358597,5.59905511464902
222960,-0.340985685586929,5.5556471335747
223070,-0.340985685586929,5.5556471335747
223180,-0.342021465301514,5.38204018510082
223290,-0.341814309358597,5.38204018510082
223400,-0.340364187955856,5.42544192221929
223510,-0.34077849984169,5.59905511464902
223620,-0.342021465301514,5.16503149950848
223730,-0.341192841529846,5.16503149950848
223840,-0.34077849984169,5.2084394805828
223950,-0.341192841529846,4.9914245510346
224050,-0.341814309358597,4.68760614724946
224160,-0.341192841529846,4.86121309572334
224270,-0.340985685586929,4.86121309572334
224380,-0.340985685586929,4.94801656996028
224490,-0.340364187955856,4.99141830707875
224600,-0.341814309358597,4.94801656996028
224710,-0.341814309358597,4.86121309572334
224820,-0.341192841529846,4.73100164041208
224930,-0.34160715341568,4.68759990329361
225040,-0.341399997472763,4.64419816617514
225150,-0.34160715341568,4.47058497374541
225260,-0.341399997472763,4.47058497374541
225360,-0.339949876070023,4.77440337753055
225470,-0.340985685586929,4.77440337753055
225580,-0.342228621244431,4.25357628815307
225690,-0.341814309358597,4.07996933967919
225800,-0.341399997472763,3.94975788436793
225910,-0.340571343898773,3.86295441013099
226020,-0.34243580698967,3.7761446919382
226130,-0.342642962932587,3.38551656996028
226240,-0.341814309358597,3.34211483284181
226350,-0.340157032012939,3.77613844798235
226460,-0.34160715341568,4.07995685176749
226570,-0.340364187955856,4.38377525555263
226680,-0.34077849984169,4.34037351843416
226780,-0.342021465301514,4.21016830707875
226890,-0.340571343898773,4.64419816617514
227000,-0.340364187955856,4.7744096214864
227110,-0.340364187955856,5.03482628815307
227220,-0.341192841529846,5.03482628815307
227330,-0.340571343898773,5.16503774346433
227440,-0.340985685586929,4.9914245510346
227550,-0.340571343898773,4.73100788436793
227660,-0.34077849984169,4.77441586544225
227770,-0.341399997472763,4.77441586544225
227880,-0.341814309358597,4.73101412832378
227990,-0.341399997472763,4.81781760256072
228100,-0.340985685586929,4.86121933967919
228200,-0.340985685586929,4.86121933967919
228310,-0.340364187955856,4.90462107679766
228420,-0.340985685586929,5.12162976239001
228530,-0.340157032012939,5.42544816617514
228640,-0.340571343898773,5.72926656996028
228750,-0.34077849984169,5.68586483284181
228860,-0.34160715341568,5.64246309572334
228970,-0.341192841529846,5.68586483284181
229080,-0.341814309358597,5.25184121770127
229190,-0.340985685586929,5.20843323662695
229300,-0.341399997472763,4.94801656996028
229410,-0.340157032012939,5.12162976239001
229510,-0.341192841529846,5.03482004419722
229620,-0.34077849984169,5.33863844798235
229730,-0.342021465301514,5.25183497374541
229840,-0.341399997472763,4.99141830707875
229950,-0.341399997472763,4.86120685176749
230060,-0.340985685586929,5.20842699267109
230170,-0.341399997472763,5.07821553735984
230280,-0.34160715341568,4.86120060781164
230390,-0.34077849984169,4.94801032600443
230500,-0.341192841529846,4.7743971335747
230610,-0.340985685586929,4.68758741538191
230720,-0.341814309358597,4.42717074871524
230830,-0.342228621244431,4.29696553735984
230930,-0.341399997472763,4.25356380024137
231040,-0.340985685586929,4.38376901159677
231150,-0.339742720127106,4.68758741538191
231260,-0.341814309358597,4.47057248583371
231370,-0.340157032012939,4.60077769718912
231480,-0.341399997472763,4.55737596007065
231590,-0.34077849984169,4.86119436385579
231700,-0.34160715341568,5.12161103052245
231810,-0.342228621244431,4.77439088961885
231920,-0.342228621244431,4.68758741538191
232030,-0.341814309358597,4.68758741538191
232140,-0.340985685586929,4.68758741538191
232240,-0.342021465301514,4.5573822040265
232350,-0.340364187955856,4.68759365933776
232460,-0.34243580698967,4.42717699267109
232570,-0.341814309358597,4.2101620631229
232680,-0.340985685586929,4.34036727447831
232790,-0.341192841529846,4.25355755628552
232900,-0.341399997472763,4.07994436385579
233010,-0.34160715341568,3.90633117142606
233120,-0.340571343898773,4.03654262673732
233230,-0.340571343898773,4.29695929340398
233340,-0.34160715341568,4.38376276764092
233450,-0.341192841529846,4.34036103052245
233560,-0.340571343898773,4.47057248583371
233660,-0.341399997472763,4.55737596007065
233770,-0.341814309358597,4.38376901159677
233880,-0.341814309358597,4.2101620631229
233990,-0.34160715341568,4.12335858888596
234100,-0.34160715341568,3.99315337753055
234210,-0.34160715341568,3.77613844798235
234320,-0.340364187955856,3.99315337753055
234430,-0.341192841529846,4.07995685176749
234540,-0.340985685586929,4.2101620631229
234650,-0.342228621244431,3.94975164041208
234760,-0.34077849984169,4.16676656996028
234870,-0.34077849984169,4.29697802527154
234970,-0.341399997472763,4.12336483284181
235080,-0.340157032012939,4.51398671086388
235190,-0.340571343898773,4.81780511464902
235300,-0.341192841529846,4.90460858888596
235410,-0.340571343898773,5.03482004419722
235520,-0.34077849984169,5.16503149950848
235630,-0.34160715341568,5.03482628815307
235740,-0.342228621244431,4.81781760256072
235850,-0.34160715341568,4.64420441013099
235960,-0.340571343898773,4.90462107679766
236070,-0.342021465301514,4.64420441013099
236180,-0.34160715341568,4.38378774346433
236290,-0.340364187955856,4.64420441013099
236390,-0.34077849984169,4.68761239120531
236500,-0.341814309358597,4.60080891696837
236610,-0.341192841529846,4.73101412832378
236720,-0.339535564184189,5.2084394805828
236830,-0.341399997472763,5.29524295481973
236940,-0.340985685586929,5.29524295481973
237050,-0.341814309358597,5.12163600634586
237160,-0.34160715341568,5.2084394805828
237270,-0.34243580698967,5.07822802527154
237380,-0.34243580698967,4.64419816617514
237490,-0.341399997472763,4.51398671086388
237600,-0.341399997472763,4.64419192221929
237700,-0.34160715341568,4.55738844798235
237810,-0.341399997472763,4.42717699267109
237920,-0.342228621244431,4.21016830707875
238030,-0.341814309358597,4.21016830707875
238140,-0.341814309358597,4.07996309572334
238250,-0.340985685586929,4.07996309572334
238360,-0.34160715341568,3.94975788436793
238470,-0.34160715341568,3.68934121770127
238580,-0.340985685586929,3.86294816617514
238690,-0.34077849984169,4.07996309572334
238800,-0.341192841529846,4.07996309572334
238910,-0.34077849984169,4.25357628815307
239020,-0.341399997472763,4.25357628815307
239120,-0.341814309358597,4.2101745510346
239230,-0.342228621244431,4.03656760256072
239340,-0.341192841529846,3.77615093589405
239450,-0.34160715341568,3.64594572453865
239560,-0.34243580698967,3.60253774346433
239670,-0.340985685586929,3.7761446919382
239780,-0.341192841529846,3.81954642905667
239890,-0.341399997472763,3.64593323662695
240000,-0.341399997472763,3.86294816617514
240110,-0.341399997472763,4.12336483284181
240220,-0.34160715341568,4.16676656996028
240330,-0.340571343898773,4.07996309572334
240430,-0.341814309358597,4.03656135860487
240540,-0.341814309358597,3.73274295481973
240650,-0.34160715341568,3.55912976239001
240760,-0.342642962932587,3.42891830707875
240870,-0.342021465301514,3.12509990329361
240980,-0.34160715341568,2.86468323662695
241090,-0.341814309358597,2.56086483284181
241200,-0.34077849984169,2.6476745510346
241310,-0.34243580698967,2.25704642905667
241420,-0.34305727481842,1.82302281391613
241530,-0.342228621244431,1.47580267301252
241640,-0.340985685586929,1.4323946919382
241750,-0.341192841529846,1.47579642905667
241850,-0.341192841529846,1.60600164041208
241960,-0.340364187955856,1.82301656996028
242070,-0.341399997472763,1.73621309572334
242180,-0.340985685586929,1.73621309572334
242290,-0.341814309358597,1.4323946919382
242400,-0.340571343898773,1.51920441013099
242510,-0.341399997472763,1.25878774346433
242620,-0.340364187955856,1.3021894805828
242730,-0.34077849984169,1.3021894805828
242840,-0.34077849984169,1.47580267301252
242950,-0.341399997472763,1.43240093589405
243060,-0.34160715341568,1.47580267301252
243160,-0.34160715341568,1.34559746165712
243270,-0.34077849984169,1.47580891696837
243380,-0.342021465301514,1.0851870389463
243490,-0.34077849984169,1.17199675713909
243600,-0.340985685586929,1.12858877606477
243710,-0.340157032012939,1.51921065408684
243820,-0.340571343898773,1.69282384651657
243930,-0.340985685586929,1.77962732075351
244040,-0.34160715341568,1.6494221093981
244150,-0.341192841529846,1.69282384651657
244260,-0.340364187955856,1.95324051318324
244370,-0.341192841529846,1.86643079499045
244480,-0.34243580698967,1.60601412832378
244580,-0.340985685586929,1.60601412832378
244690,-0.340985685586929,1.77962107679766
244800,-0.341814309358597,1.8664245510346
244910,-0.34160715341568,1.82302281391613
245020,-0.341399997472763,1.73621933967919
245130,-0.341814309358597,1.30219572453865
245240,-0.341399997472763,1.38899919877559
245350,-0.341192841529846,1.17198426922739
245460,-0.341192841529846,1.21538600634586
245570,-0.340985685586929,1.17197802527154
245680,-0.341192841529846,1.25878149950848
245790,-0.34077849984169,1.56259990329361
245890,-0.339535564184189,2.12682872978956
246000,-0.342021465301514,2.08342699267109
246110,-0.341814309358597,1.90982004419722
246220,-0.341814309358597,1.95322178131569
246330,-0.34160715341568,1.69280511464902
246440,-0.342021465301514,1.77961483284181
246550,-0.33932837843895,2.30044816617514
246660,-0.342228621244431,2.04003774346433
246770,-0.341399997472763,1.99663600634586
246880,-0.341192841529846,2.04003774346433
246990,-0.340364187955856,2.30045441013099
247100,-0.340571343898773,0
247210,-0.341399997472763,9.57067074267218
247310,-0.340985685586929,10.1565871695738
247420,-0.341399997472763,9.96128169393994
247530,-0.34160715341568,27.1872572361607
247640,-0.339949876070023,17.6758146163391
247750,-0.340985685586929,18.0664325918466
247860,-0.34077849984169,18.554719110216
247970,-0.341399997472763,18.6523736040929
248080,-0.341814309358597,27.6040501118926
248190,-0.34243580698967,45.4430517509051
248300,-0.340571343898773,45.3779491452274
248410,-0.340985685586929,45.4430517509051
248520,-0.341399997472763,45.3128465395497
248620,-0.342228621244431,45.3128465395497
248730,-0.340571343898773,45.3779491452274
248840,-0.341399997472763,45.1826319622605
248950,-0.342021465301514,44.9873241452274
249060,-0.341814309358597,44.466493933872
249170,-0.341814309358597,44.075868933872
249280,-0.341192841529846,44.075868933872
249390,-0.341192841529846,43.8805517509051
249500,-0.340985685586929,43.8154397792936
249610,-0.34160715341568,43.8154397792936
249720,-0.341399997472763,44.0758502020045
249830,-0.341399997472763,44.1409528076822
249940,-0.34077849984169,44.0758502020045
250040,-0.341399997472763,44.2711580190376
250150,-0.34160715341568,44.2711580190376
250260,-0.342228621244431,43.6852252020045
250370,-0.340985685586929,43.620113230393
250480,-0.340364187955856,44.0758408360707
250590,-0.341192841529846,44.0758408360707
250700,-0.34077849984169,43.6852252020045
250810,-0.342021465301514,43.4899173849713
250920,-0.340157032012939,43.7503371736159
251030,-0.34077849984169,44.0758595679382
251140,-0.340364187955856,44.4664845679382
251250,-0.341192841529846,44.8571095679382
251350,-0.341192841529846,45.2477345679382
251460,-0.340985685586929,45.3779397792936
251570,-0.340571343898773,45.6383595679382
251680,-0.341814309358597,45.5732569622605
251790,-0.341399997472763,45.5732569622605
251900,-0.34243580698967,45.5081449906491
252010,-0.34160715341568,45.5732475963268
252120,-0.341399997472763,45.7034528076822
252230,-0.340571343898773,45.8336673849713
252340,-0.340985685586929,46.0289752020045
252450,-0.341814309358597,45.9638725963268
252560,-0.341399997472763,45.8336673849713
252670,-0.34077849984169,45.8336673849713
252770,-0.340985685586929,45.8987699906491
252880,-0.341192841529846,45.7685554133599
252990,-0.340985685586929,45.8987606247153
253100,-0.341399997472763,46.0289658360707
253210,-0.340364187955856,46.6148986531038
253320,-0.341399997472763,46.5497960474261
253430,-0.342228621244431,46.354488230393
253540,-0.341192841529846,46.745113230393
253650,-0.341192841529846,46.6800106247153
253760,-0.340985685586929,46.745113230393
253870,-0.340364187955856,47.0706356247153
253980,-0.34160715341568,47.0055330190376
254080,-0.340985685586929,47.135738230393
254190,-0.340985685586929,47.3310460474261
254300,-0.341399997472763,47.0706262587815
254410,-0.342021465301514,47.0055236531038
254520,-0.340985685586929,47.2659340758146
254630,-0.340157032012939,47.7216616814923
254740,-0.340157032012939,48.5029116814923
254850,-0.340364187955856,49.0237418928477
254960,-0.34160715341568,49.0237418928477
255070,-0.341814309358597,49.0237418928477
255180,-0.340571343898773,49.0888444985254
255290,-0.340985685586929,49.5445721042031
255400,-0.340985685586929,50.1956075269139
255500,-0.342021465301514,50.2607101325916
255610,-0.341192841529846,50.1956075269139
255720,-0.34077849984169,50.3258221042031
255830,-0.341814309358597,50.13051428717
255940,-0.341399997472763,49.8049918928477
256050,-0.341192841529846,49.8700944985254
256160,-0.341192841529846,49.8049918928477
256270,-0.34160715341568,49.8700944985254
256380,-0.341192841529846,49.6747773155585
256490,-0.341399997472763,49.6747773155585
256600,-0.341399997472763,49.3492549212362
256710,-0.342228621244431,48.8935273155585
256810,-0.341399997472763,48.6982101325917
256920,-0.341814309358597,48.5680049212362
257030,-0.342228621244431,48.3726971042031
257140,-0.341192841529846,48.5029023155585
257250,-0.340364187955856,48.6331075269139
257360,-0.342021465301514,48.6331075269139
257470,-0.342021465301514,48.2424825269139
257580,-0.341814309358597,47.9820721042031
257690,-0.341814309358597,47.4612418928477
257800,-0.342642962932587,46.8101971042031
257910,-0.340985685586929,46.8101971042031
258020,-0.341399997472763,46.8752997098808
258130,-0.34160715341568,46.7450944985254
258230,-0.341814309358597,46.2893668928477
258340,-0.340985685586929,46.3544694985254
258450,-0.34077849984169,46.8753090758146
258560,-0.340157032012939,47.1357288644592
258670,-0.340364187955856,47.3310460474261
258780,-0.340157032012939,47.8518762587815
258890,-0.341814309358597,47.7867736531038
259000,-0.340364187955856,48.1122960474261
259110,-0.34160715341568,48.1773986531038
259220,-0.341192841529846,48.2425012587815
259330,-0.34160715341568,48.1122960474261
259440,-0.341192841529846,48.1122960474261
259540,-0.342021465301514,47.7867830190376
259650,-0.342228621244431,47.4612699906491
259760,-0.341814309358597,47.1357475963268
259870,-0.341192841529846,46.6149173849713
259980,-0.341192841529846,46.8753278076822
260090,-0.34160715341568,46.9404304133599
260200,-0.341192841529846,47.135738230393
260310,-0.34160715341568,47.135738230393
260420,-0.34160715341568,47.2659434417484
260530,-0.341399997472763,46.6148986531038
260640,-0.341192841529846,46.9404116814923
260750,-0.342021465301514,46.7451038644592
260860,-0.340985685586929,46.8102064701369
260960,-0.341192841529846,46.5497866814923
261070,-0.341814309358597,46.1591616814923
261180,-0.341192841529846,46.22426428717
261290,-0.340571343898773,46.3544788644592
261400,-0.341399997472763,46.3544788644592
261510,-0.340985685586929,46.5497866814923
261620,-0.341814309358597,45.9638538644592
261730,-0.340985685586929,45.9638538644592
261840,-0.34243580698967,45.44301428717
261950,-0.341399997472763,45.44301428717
262060,-0.341399997472763,45.5732194985254
262170,-0.341399997472763,45.8987418928477
262270,-0.341399997472763,45.6383221042031
262380,-0.341399997472763,45.5081168928477
262490,-0.34160715341568,45.44301428717
262600,-0.340157032012939,46.0940497098808
262710,-0.34160715341568,45.7685273155585
262820,-0.34160715341568,45.7034247098808
262930,-0.341399997472763,45.8987325269139
263040,-0.341399997472763,46.0289377382694
263150,-0.34077849984169,46.3544601325917
263260,-0.34160715341568,46.2242549212362
263370,-0.340571343898773,46.4195721042031
263480,-0.34243580698967,45.9638444985254
263590,-0.340364187955856,46.3544694985254
263690,-0.340985685586929,46.4846747098808
263800,-0.341192841529846,46.5497773155585
263910,-0.341399997472763,46.3544601325917
264020,-0.341192841529846,46.4195627382694
264130,-0.341192841529846,46.5497679496248
264240,-0.342228621244431,46.5497679496248
264350,-0.342228621244431,46.1591523155585
264460,-0.341192841529846,45.8987325269139
264570,-0.340985685586929,45.9638351325917
264680,-0.340571343898773,46.0289377382694
264790,-0.341192841529846,46.2893481609802
264900,-0.340571343898773,46.1591429496248
265000,-0.340571343898773,46.2242455553025
265110,-0.341814309358597,45.7685179496248
265220,-0.342228621244431,45.4430049212362
265330,-0.34077849984169,45.5732194985254
265440,-0.341399997472763,45.44301428717
265550,-0.34077849984169,45.3779116814923
265660,-0.341192841529846,45.5732194985254
265770,-0.341192841529846,45.6383221042031
265880,-0.341399997472763,45.9638444985254
265990,-0.341399997472763,46.0289471042031
266100,-0.341192841529846,46.0940497098808
266210,-0.34160715341568,45.7685273155585
266320,-0.342228621244431,45.3779116814923
266420,-0.34077849984169,45.7034340758146
266530,-0.340985685586929,45.83363928717
266640,-0.340985685586929,45.7685273155585
266750,-0.340364187955856,45.9638444985254
266860,-0.34077849984169,46.0940590758146
266970,-0.34160715341568,45.8987512587815
267080,-0.342021465301514,45.7034434417484
267190,-0.341399997472763,45.3779210474261
267300,-0.341399997472763,45.3779210474261
267410,-0.341814309358597,45.5081262587815
267520,-0.342021465301514,45.2477158360707
267630,-0.34077849984169,45.3779304133599
267730,-0.340985685586929,45.3779304133599
267840,-0.341192841529846,45.1175106247153
267950,-0.341814309358597,45.0524080190376
268060,-0.341814309358597,44.7919975963268
268170,-0.341814309358597,44.5315871736159
268280,-0.340985685586929,44.6617923849713
268390,-0.341814309358597,44.7268949906491
268500,-0.340571343898773,44.8571095679382
268610,-0.341814309358597,44.3362793565828
268720,-0.341192841529846,44.0107569622605
268830,-0.340364187955856,44.0107569622605
268940,-0.34077849984169,44.2711767509051
269050,-0.341399997472763,44.4013819622605
269150,-0.342228621244431,43.8805517509051
269260,-0.341192841529846,43.8154491452274
269370,-0.341814309358597,43.5550387225166
269480,-0.34160715341568,43.685243933872
269590,-0.34160715341568,43.5550387225166
269700,-0.341399997472763,43.3597215395497
269810,-0.34077849984169,43.685243933872
269920,-0.339535564184189,44.2711767509051
270030,-0.340985685586929,44.3362793565828
270140,-0.341399997472763,44.2711767509051
270250,-0.342228621244431,44.075868933872
270360,-0.342228621244431,43.7503559054835
270460,-0.341814309358597,43.6201506941281
270570,-0.341399997472763,43.6201506941281
270680,-0.341399997472763,43.8805611168389
270790,-0.34160715341568,43.8154585111612
270900,-0.339949876070023,44.4013913281943
271010,-0.340571343898773,44.9222215395497
271120,-0.342228621244431,44.5967085111612
271230,-0.34077849984169,44.4665032998058
271340,-0.341814309358597,44.5316059054835
271450,-0.340364187955856,45.0524361168389
271560,-0.341814309358597,45.0524361168389
271670,-0.339742720127106,45.7034715395497
271780,-0.341399997472763,46.0940965395497
271880,-0.34160715341568,45.8987887225166
271990,-0.341192841529846,45.9638913281943
272100,-0.34077849984169,46.2243111168389
272210,-0.342021465301514,46.1592085111612
272320,-0.342228621244431,45.768592877095
272430,-0.342021465301514,45.377967877095
272540,-0.34077849984169,45.1826600600619
272650,-0.341192841529846,44.9222402714173
272760,-0.342021465301514,44.3363074543842
272870,-0.341192841529846,44.5316152714173
272980,-0.340157032012939,44.596717877095
273090,-0.342228621244431,44.4014100600619
273190,-0.342228621244431,44.0758970316733
273300,-0.34160715341568,44.0758970316733
273410,-0.341814309358597,43.8805892146402
273520,-0.34160715341568,44.0107944259956
273630,-0.34305727481842,43.750374637351
273740,-0.34160715341568,43.8154772430288
273850,-0.34243580698967,43.4248522430288
273960,-0.341399997472763,43.359749637351
274070,-0.341192841529846,43.4899548487065
274180,-0.340157032012939,43.8154772430288
274290,-0.341192841529846,43.9456824543842
274400,-0.34160715341568,43.9456824543842
274510,-0.341192841529846,44.0107850600619
274610,-0.340985685586929,44.0758876657396
274720,-0.342021465301514,44.0758876657396
274830,-0.341192841529846,44.0107850600619
274940,-0.34160715341568,43.8805798487065
275050,-0.342021465301514,43.8154772430288
275160,-0.339742720127106,44.2712048487065
275270,-0.341192841529846,44.0758876657396
275380,-0.340364187955856,44.4014100600619
275490,-0.340985685586929,44.4014100600619
275600,-0.341814309358597,44.4014100600619
275710,-0.341192841529846,44.3363074543842
275820,-0.342021465301514,44.4665220316733
275920,-0.340157032012939,44.8571470316733
276030,-0.341192841529846,44.922249637351
276140,-0.34077849984169,45.1175668203179
276250,-0.34160715341568,45.0524642146402
276360,-0.340157032012939,45.4430892146402
276470,-0.342228621244431,45.2477813976071
276580,-0.341399997472763,44.8571563976071
276690,-0.340985685586929,45.0524642146402
276800,-0.341399997472763,45.1175668203179
276910,-0.340571343898773,45.3779866089625
277020,-0.340571343898773,45.6384063976071
277130,-0.341399997472763,45.4430892146402
277240,-0.340985685586929,45.6383970316733
277340,-0.340364187955856,45.703499637351
277450,-0.341192841529846,46.094124637351
277560,-0.342642962932587,45.3779772430288
277670,-0.341192841529846,45.312874637351
277780,-0.340364187955856,45.5732944259956
277890,-0.340985685586929,45.703499637351
278000,-0.342021465301514,45.4430892146402
278110,-0.340985685586929,45.5081918203179
278220,-0.34160715341568,45.703499637351
278330,-0.341814309358597,45.8337048487065
278440,-0.340985685586929,45.8988074543842
278550,-0.341192841529846,45.8337048487065
278650,-0.342642962932587,45.1826600600619
278760,-0.34077849984169,45.312874637351
278870,-0.340364187955856,45.3779772430288
278980,-0.339949876070023,45.5732850600619
279090,-0.34160715341568,45.6383876657396
279200,-0.341814309358597,45.768592877095
279310,-0.342021465301514,45.377967877095
279420,-0.34160715341568,45.3128652714173
279530,-0.341192841529846,45.1826506941281
279640,-0.340571343898773,45.377967877095
279750,-0.34077849984169,45.5081824543842
279860,-0.342021465301514,45.312874637351
279970,-0.34077849984169,45.5081918203179
280070,-0.341192841529846,45.5081918203179
280180,-0.340364187955856,45.8988168203179
280290,-0.342021465301514,45.9639194259956
280400,-0.340985685586929,45.8988074543842
280510,-0.341399997472763,45.7686022430288
280620,-0.34243580698967,45.312874637351
280730,-0.341399997472763,44.9873522430288
280840,-0.341399997472763,44.7920350600619
280950,-0.341814309358597,44.7269324543842
281060,-0.34160715341568,44.8571376657396
281170,-0.34077849984169,45.0524548487065
281280,-0.339742720127106,45.5732850600619
281380,-0.342021465301514,45.5081824543842
281490,-0.341814309358597,45.5732850600619
281600,-0.34077849984169,45.5732850600619
281710,-0.342228621244431,45.1826694259956
281820,-0.341192841529846,45.1826694259956
281930,-0.341814309358597,45.1826694259956
282040,-0.342228621244431,45.0524642146402
282150,-0.34160715341568,45.1175668203179
282260,-0.341192841529846,45.0524642146402
282370,-0.341192841529846,45.2477720316733
282480,-0.340157032012939,45.3779772430288
282590,-0.340985685586929,45.6383876657396
282700,-0.340571343898773,45.8337048487065
282800,-0.341814309358597,45.3779772430288
282910,-0.342642962932587,44.7920350600619
283020,-0.343264430761337,44.2061022430288
283130,-0.340364187955856,44.7920350600619
283240,-0.34077849984169,44.922249637351
283350,-0.339742720127106,45.5732850600619
283460,-0.341399997472763,45.6383876657396
283570,-0.341192841529846,45.768592877095
283680,-0.34160715341568,45.7034902714173
283790,-0.342642962932587,45.1175480884504
283900,-0.34160715341568,44.4665126657396
284010,-0.341399997472763,44.3363074543842
284110,-0.341814309358597,44.2061022430288
284220,-0.34160715341568,44.4014100600619
284330,-0.342021465301514,44.4665126657396
284440,-0.340985685586929,44.7269230884504
284550,-0.34305727481842,44.206092877095
284660,-0.342642962932587,43.815467877095
284770,-0.341399997472763,43.8805704827727
284880,-0.341399997472763,43.424842877095
284990,-0.34077849984169,43.3597402714173
285100,-0.34160715341568,43.5550480884504
285210,-0.341399997472763,43.3597309054835
285320,-0.340985685586929,43.6201413281943
285430,-0.341192841529846,43.3597215395497
285530,-0.341192841529846,43.5550293565828
285640,-0.340985685586929,43.1644043565828
285750,-0.341192841529846,43.2295069622605
285860,-0.342021465301514,43.0993017509051
285970,-0.340985685586929,43.1644043565828
286080,-0.341399997472763,42.9690871736159
286190,-0.341814309358597,43.0341897792936
286300,-0.341192841529846,43.3597028076822
286410,-0.341814309358597,43.4248054133599
286520,-0.34160715341568,43.1643856247153
286630,-0.340985685586929,43.229488230393
286740,-0.34160715341568,43.3596934417484
286840,-0.341399997472763,43.2945908360707
286950,-0.34160715341568,42.838863230393
287060,-0.340985685586929,43.2294788644592
287170,-0.34160715341568,43.4247866814923
287280,-0.338499754667282,44.4013444985254
287390,-0.341192841529846,44.5966523155585
287500,-0.340985685586929,44.7919601325917
287610,-0.341399997472763,45.3127903439471
287720,-0.341814309358597,45.2476877382694
287830,-0.341814309358597,45.4430049212362
287940,-0.342021465301514,45.2476971042031
288050,-0.341814309358597,45.05238928717
288160,-0.341814309358597,44.5315590758146
288260,-0.34077849984169,44.6617736531038
288370,-0.341192841529846,44.7919788644592
288480,-0.34160715341568,44.6617736531038
288590,-0.34243580698967,44.2060460474261
288700,-0.341399997472763,44.4013538644592
288810,-0.34243580698967,44.0107288644592
288920,-0.342021465301514,43.8805236531038
289030,-0.340571343898773,44.3362512587815
289140,-0.34077849984169,44.010738230393
289250,-0.340985685586929,44.0758408360707
289360,-0.341192841529846,43.8154210474261
289470,-0.34305727481842,43.1643856247153
289570,-0.338292598724365,44.2711486531038
289680,-0.337256789207459,45.5081262587815
289790,-0.340571343898773,45.9638538644592
289900,-0.342021465301514,45.3779210474261
290010,-0.340364187955856,45.6383408360707
290120,-0.340364187955856,45.7685460474261
290230,-0.341399997472763,45.8336486531038
290340,-0.341399997472763,45.4430236531038
290450,-0.34077849984169,45.8987512587815
290560,-0.34243580698967,45.5732288644592
290670,-0.341814309358597,45.3128184417484
290780,-0.341399997472763,45.3128184417484
290890,-0.340985685586929,45.1826038644592
290990,-0.342021465301514,44.7268762587815
291100,-0.342021465301514,44.5315684417484
291210,-0.340157032012939,44.791988230393
291320,-0.34160715341568,44.401363230393
291430,-0.34160715341568,44.2711580190376
291540,-0.34160715341568,44.5966804133599
291650,-0.342021465301514,44.3362699906491
291760,-0.342021465301514,43.8154397792936
291870,-0.340364187955856,44.0107569622605
291980,-0.34160715341568,44.1409621736159
292090,-0.340571343898773,44.2711767509051
292200,-0.341399997472763,44.3362793565828
292300,-0.34077849984169,44.6618017509051
292410,-0.34160715341568,44.466493933872
292520,-0.34077849984169,44.5967085111612
292630,-0.340985685586929,45.1175387225166
292740,-0.341399997472763,44.9222215395497
292850,-0.340571343898773,44.857118933872
292960,-0.34077849984169,44.5967085111612
293070,-0.342021465301514,44.4665032998058
293180,-0.342021465301514,44.4014006941281
293290,-0.342021465301514,44.4014006941281
293400,-0.341192841529846,44.5316059054835
293510,-0.341399997472763,44.4665032998058
293620,-0.342021465301514,44.0107756941281
293720,-0.34160715341568,43.7503559054835
293830,-0.340571343898773,44.2060835111612
293940,-0.340985685586929,44.1409715395497
294050,-0.340571343898773,44.3362887225166
294160,-0.341192841529846,44.075868933872
294270,-0.340571343898773,44.5315965395497
294380,-0.340985685586929,44.5315965395497
294490,-0.342228621244431,44.2711861168389
294600,-0.341192841529846,44.6618111168389
294710,-0.340571343898773,44.9222309054835
294820,-0.341192841529846,44.9873335111612
294930,-0.341192841529846,45.1826413281943
295030,-0.341399997472763,45.247743933872
295140,-0.340985685586929,45.1826319622605
295250,-0.339949876070023,45.1175293565828
295360,-0.341399997472763,45.3128371736159
295470,-0.342642962932587,45.0524173849713
295580,-0.341399997472763,44.8571002020045
295690,-0.34160715341568,45.0524080190376
295800,-0.342021465301514,44.7919975963268
295910,-0.341192841529846,44.9873054133599
296020,-0.339742720127106,45.7685460474261
296130,-0.34160715341568,45.7685460474261
296240,-0.340157032012939,46.0940684417484
296350,-0.34160715341568,45.963863230393
296450,-0.341814309358597,45.4430330190376
296560,-0.341814309358597,45.1826225963268
296670,-0.34160715341568,44.8571002020045
296780,-0.341399997472763,44.9873054133599
296890,-0.340157032012939,45.7685554133599
297000,-0.340985685586929,46.4846934417484
297110,-0.342850118875504,45.7034434417484
297220,-0.341814309358597,45.3779210474261
297330,-0.342850118875504,44.401363230393
297440,-0.342021465301514,44.2060554133599
297550,-0.34160715341568,44.0758502020045
297660,-0.340985685586929,44.2711580190376
297760,-0.341814309358597,44.5315778076822
297870,-0.342228621244431,44.3362699906491
297980,-0.340364187955856,44.6617923849713
298090,-0.341399997472763,44.7919975963268
298200,-0.341399997472763,44.8571002020045
298310,-0.341814309358597,44.9222028076822
298420,-0.341192841529846,44.8571002020045
298530,-0.34243580698967,45.0524080190376
298640,-0.342228621244431,45.1826225963268
298750,-0.339949876070023,45.6383502020045
298860,-0.34077849984169,45.8336673849713
298970,-0.341192841529846,45.7034528076822
299080,-0.341399997472763,45.7685554133599
299180,-0.341192841529846,45.8336580190376
299290,-0.34160715341568,45.6383502020045
299400,-0.342021465301514,45.3779397792936
299510,-0.34160715341568,45.2477345679382
299620,-0.341192841529846,45.1826319622605
299730,-0.340985685586929,45.2477345679382
299840,-0.340571343898773,45.7034621736159
299950,-0.340157032012939,45.9638819622605
300060,-0.341192841529846,46.0289845679382
300170,-0.34160715341568,46.0940871736159
300280,-0.341814309358597,45.8987793565828
300390,-0.34305727481842,45.5081543565828
300490,-0.340571343898773,45.8336767509051
300600,-0.34077849984169,45.8987887225166
300710,-0.341814309358597,45.8336861168389
300820,-0.341399997472763,45.8336861168389
300930,-0.341192841529846,45.9638913281943
301040,-0.342228621244431,45.5732756941281
301150,-0.34160715341568,45.5732756941281
301260,-0.342021465301514,44.4665126657396
301370,-0.342021465301514,44.2061022430288
301480,-0.341814309358597,43.9456918203179
301590,-0.340985685586929,44.0758970316733
301700,-0.341399997472763,44.2061022430288
301810,-0.340571343898773,44.5967272430288
301910,-0.341192841529846,44.8571376657396
302020,-0.340364187955856,45.3128652714173
302130,-0.340985685586929,45.5732756941281
302240,-0.341814309358597,45.2477532998058
302350,-0.341399997472763,45.1826506941281
302460,-0.342021465301514,45.0524454827727
302570,-0.340985685586929,45.5081730884504
302680,-0.341399997472763,45.5081730884504
302790,-0.342228621244431,45.5732850600619
302900,-0.341399997472763,45.768592877095
303010,-0.340985685586929,45.6383782998058
303120,-0.340571343898773,45.7034809054835
303220,-0.341192841529846,45.6383782998058
303330,-0.342021465301514,45.377967877095
303440,-0.340985685586929,46.0290032998058
303550,-0.340571343898773,45.3128652714173
303660,-0.341192841529846,44.0758876657396
303770,-0.342228621244431,43.5550574543842
303880,-0.342850118875504,43.2946376657396
303990,-0.34160715341568,42.9040126657396
304100,-0.34077849984169,42.7738074543842
304210,-0.340985685586929,42.9040126657396
304320,-0.341192841529846,42.9691152714173
304430,-0.341814309358597,42.643592877095
304540,-0.34160715341568,42.9040126657396
304640,-0.342228621244431,42.7738074543842
304750,-0.342021465301514,42.578499637351
304860,-0.34077849984169,42.6436116089625
304970,-0.341814309358597,42.7087142146402
305080,-0.342228621244431,42.6436116089625
305190,-0.34077849984169,42.4483037919294
305300,-0.342021465301514,42.318098580574
305410,-0.34160715341568,42.318098580574
305520,-0.340985685586929,42.5134063976071
305630,-0.34160715341568,42.6436116089625
305740,-0.342021465301514,42.6436116089625
305850,-0.34243580698967,41.9925668203179
305950,-0.341399997472763,42.0576694259956
306060,-0.340985685586929,41.9274548487065
306170,-0.34077849984169,42.1227720316733
306280,-0.342228621244431,41.6670444259956
306390,-0.341192841529846,41.797249637351
306500,-0.341814309358597,41.4717272430288
306610,-0.341399997472763,41.3415220316733
306720,-0.34160715341568,41.2764194259956
306830,-0.340985685586929,41.1462048487065
306940,-0.340985685586929,41.081092877095
307050,-0.340571343898773,41.5368204827727
307160,-0.341399997472763,41.7321282998058
307270,-0.342021465301514,41.7321282998058
307370,-0.340157032012939,42.0576506941281
307480,-0.342021465301514,41.862342877095
307590,-0.34077849984169,42.252967877095
307700,-0.34160715341568,42.252967877095
307810,-0.341399997472763,41.9925480884504
307920,-0.342228621244431,41.6019324543842
308030,-0.341399997472763,41.3415126657396
308140,-0.34160715341568,41.2113074543842
308250,-0.340157032012939,41.3415126657396
308360,-0.341192841529846,41.2764100600619
308470,-0.340364187955856,41.862342877095
308580,-0.341814309358597,41.6670350600619
308690,-0.340571343898773,41.6670350600619
308790,-0.338499754667282,42.5133876657396
308900,-0.338706910610199,43.2946376657396
309010,-0.33932837843895,43.9456824543842
309120,-0.340985685586929,43.9456824543842
309230,-0.341192841529846,43.5550574543842
309340,-0.34077849984169,43.750374637351
309450,-0.342228621244431,43.8805892146402
309560,-0.342021465301514,43.6852813976071
309670,-0.342021465301514,43.5550761862517
309780,-0.341192841529846,43.8154866089625
309890,-0.342228621244431,43.489973580574
310000,-0.341192841529846,43.0342459748963
310100,-0.340157032012939,43.489973580574
310210,-0.341192841529846,43.1644511862517
310320,-0.340985685586929,43.3597590032848
310430,-0.341814309358597,43.3597590032848
310540,-0.341399997472763,43.4899642146402
310650,-0.34160715341568,43.4899642146402
310760,-0.342228621244431,43.2295537919294
310870,-0.34160715341568,42.7738261862517
310980,-0.339949876070023,43.099348580574
311090,-0.340571343898773,43.8154959748963
311200,-0.34077849984169,44.1410183692186
311310,-0.341192841529846,44.661848580574
311420,-0.340364187955856,45.1826787919294
311520,-0.341399997472763,45.2477813976071
311630,-0.341192841529846,45.1826787919294
311740,-0.340985685586929,45.4430892146402
311850,-0.342021465301514,45.5081918203179
311960,-0.34077849984169,45.3779866089625
312070,-0.34160715341568,45.3128840032848
312180,-0.341399997472763,45.3128840032848
312290,-0.341192841529846,45.5081918203179
312400,-0.341814309358597,45.3128840032848
312510,-0.34077849984169,45.833723580574
312620,-0.341399997472763,46.0941340032848
312730,-0.339949876070023,46.0941340032848
312830,-0.341192841529846,45.9639194259956
312940,-0.34160715341568,45.8337142146402
313050,-0.340571343898773,46.0941340032848
313160,-0.342228621244431,45.7686209748963
313270,-0.342021465301514,45.6384157635409
313380,-0.340985685586929,45.9639287919294
313490,-0.341399997472763,46.0290313976071
313600,-0.341399997472763,45.9639287919294
313710,-0.34077849984169,46.0290407635409
313820,-0.341192841529846,45.833723580574
313930,-0.341399997472763,45.443098580574
314040,-0.341399997472763,45.3779959748963
314150,-0.34243580698967,45.1175761862517
314250,-0.340571343898773,45.5082011862517
314360,-0.34243580698967,45.7035090032848
314470,-0.341399997472763,45.4430892146402
314580,-0.341399997472763,45.2477720316733
314690,-0.341814309358597,45.2477720316733
314800,-0.341399997472763,45.2477720316733
314910,-0.34077849984169,45.3779866089625
