time,raw,transformed
5990,-0.335806667804718,0
6090,-0.335599511861801,0
6200,-0.335806667804718,0
6310,-0.334978014230728,0
6420,-0.336220979690552,0
6530,-0.336635321378708,0
6640,-0.335392355918884,0
6750,-0.334563702344894,0
6860,-0.334978014230728,0
6970,-0.336013823747635,0
7070,-0.335185199975967,0
7180,-0.336428135633469,0
7290,-0.336013823747635,0
7400,-0.335392355918884,0
7510,-0.335806667804718,0
7620,-0.337049633264542,0
7730,-0.336635321378708,0
7840,-0.337049633264542,0
7950,-0.336428135633469,0
8060,-0.337256789207459,0
8170,-0.337256789207459,0
8280,-0.337049633264542,0
8390,-0.336842477321625,0
8490,-0.336635321378708,0
8600,-0.336842477321625,0
8710,-0.337463945150375,0
8820,-0.334563702344894,0
8930,-0.337878257036209,0
9040,-0.336842477321625,0
9150,-0.337463945150375,0
9260,-0.336220979690552,0
9370,-0.336842477321625,0
9480,-0.335392355918884,0
9590,-0.336428135633469,0
9700,-0.338706910610199,0
9800,-0.337671101093292,0
9910,-0.336220979690552,0
10020,-0.337878257036209,0
10130,-0.337049633264542,0
10240,-0.336635321378708,0
10350,-0.337463945150375,0
10460,-0.338292598724365,0
10570,-0.337463945150375,0
10680,-0.336842477321625,0
10790,-0.33932837843895,0
10900,-0.337463945150375,0
11010,-0.337878257036209,0
11120,-0.337256789207459,0
11220,-0.337878257036209,0
11330,-0.337878257036209,0
11440,-0.337463945150375,0
11550,-0.338085442781448,0
11660,-0.337878257036209,0
11770,-0.338085442781448,0
11880,-0.337256789207459,0
11990,-0.337463945150375,0
12100,-0.337878257036209,0
12210,-0.337671101093292,0
12320,-0.338292598724365,0
12430,-0.338499754667282,0
12530,-0.337256789207459,0
12640,-0.338292598724365,0
12750,-0.338706910610199,0
12860,-0.338085442781448,0
12970,-0.338085442781448,0
13080,-0.338292598724365,0
13190,-0.337256789207459,0
13300,-0.338292598724365,0
13410,-0.339121222496033,0
13520,-0.338292598724365,0
13630,-0.338292598724365,0
13740,-0.338292598724365,0
13850,-0.338499754667282,0
13950,-0.338706910610199,0
14060,-0.338914066553116,0
14170,-0.337463945150375,0
14280,-0.337671101093292,0
14390,-0.338706910610199,0
14500,-0.337878257036209,0
14610,-0.338085442781448,0
14720,-0.338085442781448,0
14830,-0.338085442781448,0
14940,-0.338499754667282,0
15050,-0.337463945150375,0
15160,-0.339949876070023,0
15260,-0.337878257036209,0
15370,-0.338499754667282,0
15480,-0.339742720127106,0
15590,-0.339121222496033,0
15700,-0.338914066553116,0
15810,-0.338914066553116,0
15920,-0.338292598724365,0
16030,-0.338499754667282,0
16140,-0.339742720127106,0
16250,-0.338292598724365,0
16360,-0.338292598724365,0
16470,-0.340157032012939,0
16580,-0.339121222496033,0
16680,-0.338914066553116,0
16790,-0.33932837843895,0
16900,-0.339121222496033,0
17010,-0.338706910610199,0
17120,-0.339535564184189,0
17230,-0.339535564184189,0
17340,-0.337878257036209,0
17450,-0.338706910610199,0
17560,-0.338914066553116,0
17670,-0.338706910610199,0
17780,-0.338499754667282,0
17890,-0.339535564184189,0
17990,-0.338085442781448,0
18100,-0.338914066553116,0
18210,-0.33932837843895,0
18320,-0.339742720127106,0
18430,-0.338499754667282,0
18540,-0.338914066553116,0
18650,-0.337049633264542,0
18760,-0.338706910610199,0
18870,-0.338085442781448,0
18980,-0.337878257036209,0
19090,-0.340157032012939,0
19200,-0.338706910610199,0
19310,-0.338914066553116,0
19410,-0.338499754667282,0
19520,-0.33932837843895,0
19630,-0.340364187955856,0
19740,-0.340364187955856,0
19850,-0.33932837843895,0
19960,-0.340157032012939,0
20070,-0.338706910610199,0
20180,-0.339535564184189,0
20290,-0.339949876070023,0
20400,-0.338085442781448,0
20510,-0.339742720127106,0
20620,-0.339742720127106,0
20720,-0.338292598724365,0
20830,-0.338706910610199,0
20940,-0.338706910610199,0
21050,-0.339121222496033,0
21160,-0.338499754667282,0
21270,-0.338914066553116,0
21380,-0.338706910610199,0
21490,-0.339742720127106,0
21600,-0.340571343898773,0
21710,-0.338706910610199,0
21820,-0.339121222496033,0
21930,-0.339742720127106,0
22040,-0.339535564184189,0
22140,-0.341399997472763,0
22250,-0.33932837843895,0
22360,-0.339742720127106,0
22470,-0.339742720127106,0
22580,-0.338499754667282,0
22690,-0.337878257036209,0
22800,-0.339742720127106,0
22910,-0.339535564184189,0
23020,-0.339742720127106,0
23130,-0.339742720127106,0
23240,-0.337878257036209,0
23350,-0.339535564184189,0
23450,-0.338706910610199,0
23560,-0.338499754667282,0
23670,-0.33932837843895,0
23780,-0.338292598724365,0
23890,-0.339121222496033,0
24000,-0.339742720127106,0
24110,-0.339742720127106,0
24220,-0.339949876070023,0
24330,-0.339535564184189,0
24440,-0.339949876070023,0
24550,-0.339535564184189,0
24660,-0.33932837843895,0
24770,-0.338914066553116,0
24870,-0.340364187955856,0
24980,-0.339949876070023,0
25090,-0.339535564184189,0
25200,-0.339742720127106,0
25310,-0.339121222496033,0
25420,-0.339121222496033,0
25530,-0.338292598724365,0
25640,-0.339535564184189,0
25750,-0.339535564184189,0
25860,-0.338292598724365,0
25970,-0.340364187955856,0
26080,-0.33932837843895,0
26180,-0.340985685586929,0
26290,-0.338499754667282,0
26400,-0.339742720127106,0
26510,-0.338914066553116,0
26620,-0.339949876070023,0
26730,-0.339535564184189,0
26840,-0.339535564184189,0
26950,-0.338914066553116,0
27060,-0.339535564184189,0
27170,-0.338706910610199,0
27280,-0.337878257036209,0
27390,-0.339121222496033,0
27500,-0.339535564184189,0
27600,-0.340571343898773,0
27710,-0.339535564184189,0
27820,-0.340157032012939,0
27930,-0.338914066553116,0
28040,-0.34077849984169,0
28150,-0.339121222496033,0
28260,-0.339535564184189,0
28370,-0.339949876070023,0
28480,-0.339742720127106,0
28590,-0.339535564184189,0
28700,-0.339742720127106,0
28810,-0.339949876070023,0
28910,-0.339742720127106,0
29020,-0.339742720127106,0
29130,-0.339535564184189,0
29240,-0.340157032012939,0
29350,-0.340157032012939,0
29460,-0.339535564184189,0
29570,-0.340571343898773,0
29680,-0.340364187955856,0
29790,-0.33932837843895,0
29900,-0.339535564184189,0
30010,-0.340157032012939,0
30120,-0.338085442781448,0
30230,-0.339121222496033,0
30330,-0.338914066553116,0
30440,-0.338292598724365,0
30550,-0.338706910610199,0
30660,-0.339949876070023,0
30770,-0.340571343898773,0
30880,-0.339742720127106,0
30990,-0.340364187955856,0
31100,-0.339742720127106,0
31210,-0.340157032012939,0
31320,-0.337878257036209,0
31430,-0.340157032012939,0
31540,-0.339742720127106,0
31640,-0.339742720127106,0
31750,-0.33932837843895,0
31860,-0.339949876070023,0
31970,-0.339742720127106,0
32080,-0.339535564184189,0
32190,-0.340571343898773,0
32300,-0.338085442781448,0
32410,-0.339742720127106,0
32520,-0.339742720127106,0
32630,-0.340571343898773,0
32740,-0.340571343898773,0
32850,-0.33932837843895,0
32960,-0.340157032012939,0
33060,-0.34077849984169,0
33170,-0.340985685586929,0
33280,-0.340364187955856,0
33390,-0.33932837843895,0
33500,-0.34077849984169,0
33610,-0.339949876070023,0
33720,-0.340364187955856,0
33830,-0.340571343898773,0
33940,-0.340985685586929,0
34050,-0.339535564184189,0
34160,-0.340364187955856,0
34270,-0.340157032012939,0
34370,-0.340157032012939,0
34480,-0.339535564184189,0
34590,-0.339742720127106,0
34700,-0.339949876070023,0
34810,-0.339949876070023,0
34920,-0.339949876070023,0
35030,-0.340157032012939,0
35140,-0.341192841529846,0
35250,-0.34077849984169,0
35360,-0.339742720127106,0
35470,-0.341192841529846,0
35580,-0.339742720127106,0
35690,-0.34077849984169,0
35790,-0.340157032012939,0
35900,-0.340157032012939,0
36010,-0.340571343898773,0
36120,-0.340571343898773,0
36230,-0.339121222496033,0
36340,-0.339949876070023,0
36450,-0.339535564184189,0
36560,-0.340364187955856,0
36670,-0.338706910610199,0
36780,-0.341399997472763,0
36890,-0.339949876070023,0
37000,-0.340157032012939,0
37110,-0.340571343898773,0
37210,-0.339742720127106,0
37320,-0.339535564184189,0
37430,-0.339742720127106,0
37540,-0.340364187955856,0
37650,-0.339121222496033,0
37760,-0.340157032012939,0
37870,-0.340364187955856,0
37980,-0.340571343898773,0
38090,-0.340364187955856,0
38200,-0.33932837843895,0
38310,-0.341399997472763,0
38420,-0.341399997472763,0
38520,-0.340571343898773,0
38630,-0.340157032012939,0
38740,-0.340364187955856,0
38850,-0.341192841529846,0
38960,-0.339949876070023,0
39070,-0.339742720127106,0
39180,-0.339949876070023,0
39290,-0.340364187955856,0
39400,-0.34077849984169,0
39510,-0.339949876070023,0
39620,-0.340571343898773,0
39730,-0.340364187955856,0
39840,-0.339949876070023,0
39940,-0.34077849984169,0
40050,-0.340157032012939,0
40160,-0.340364187955856,0
40270,-0.339742720127106,0
40380,-0.34077849984169,0
40490,-0.339742720127106,0
40600,-0.340157032012939,0
40710,-0.339949876070023,0
40820,-0.339949876070023,0
40930,-0.340985685586929,0
41040,-0.339535564184189,0
41150,-0.340157032012939,0
41250,-0.339535564184189,0
41360,-0.339742720127106,0
41480,-0.34077849984169,0
41580,-0.340364187955856,0
41690,-0.339121222496033,0
41800,-0.339121222496033,0
41910,-0.339949876070023,0
42020,-0.33932837843895,0
42130,-0.341192841529846,0
42240,-0.34077849984169,0
42350,-0.339742720127106,0
42460,-0.338914066553116,0
42570,-0.33932837843895,0
42670,-0.339535564184189,0
42780,-0.340571343898773,0
42890,-0.339535564184189,0
43000,-0.340985685586929,0
43110,-0.33932837843895,0
43220,-0.340985685586929,0
43330,-0.341814309358597,0
43440,-0.341399997472763,0
43550,-0.339949876070023,0
43660,-0.340985685586929,0
43770,-0.34077849984169,0
43880,-0.339742720127106,0
43980,-0.340364187955856,0
44090,-0.339742720127106,0
44200,-0.340571343898773,0
44310,-0.339949876070023,0
44420,-0.338914066553116,0
44530,-0.34077849984169,0
44640,-0.340985685586929,0
44750,-0.340364187955856,0
44860,-0.339949876070023,0
44970,-0.340985685586929,0
45080,-0.340985685586929,0
45190,-0.339535564184189,0
45300,-0.340364187955856,0
45400,-0.340985685586929,0
45510,-0.33932837843895,0
45620,-0.340157032012939,0
45730,-0.340157032012939,0
45840,-0.339121222496033,0
45950,-0.340364187955856,0
46060,-0.340364187955856,0
46170,-0.340571343898773,0
46280,-0.340157032012939,0
46390,-0.340157032012939,0
46500,-0.341192841529846,0
46610,-0.339949876070023,0
46710,-0.339121222496033,0
46820,-0.340364187955856,0
46930,-0.340157032012939,0
47040,-0.340364187955856,0
47150,-0.340571343898773,0
47260,-0.340157032012939,0
47370,-0.340571343898773,0
47480,-0.339742720127106,0
47590,-0.341399997472763,0
47700,-0.340571343898773,0
47810,-0.34077849984169,0
47920,-0.340157032012939,0
48030,-0.340157032012939,0
48130,-0.340157032012939,0
48240,-0.339949876070023,0
48350,-0.33932837843895,0
48460,-0.34077849984169,0
48570,-0.34077849984169,0
48680,-0.340157032012939,0
48790,-0.340157032012939,0
48900,-0.34077849984169,0
49010,-0.341192841529846,0
49120,-0.340571343898773,0
49230,-0.33932837843895,0
49340,-0.34077849984169,0
49440,-0.340571343898773,0
49550,-0.338914066553116,0
49660,-0.340364187955856,0
49770,-0.341814309358597,0
49880,-0.340571343898773,0
49990,-0.341192841529846,0
50100,-0.340157032012939,0
50210,-0.339535564184189,0
50320,-0.340364187955856,0
50430,-0.34077849984169,0
50540,-0.340571343898773,0
50650,-0.340157032012939,0
50760,-0.339535564184189,0
50860,-0.340571343898773,0
50970,-0.340157032012939,0
51080,-0.340364187955856,0
51190,-0.340157032012939,0
51300,-0.340364187955856,0
51410,-0.340571343898773,0
51520,-0.339949876070023,0
51630,-0.340157032012939,0
51740,-0.339949876070023,0
51850,-0.341814309358597,0
51960,-0.339535564184189,0
52070,-0.340571343898773,0
52170,-0.340571343898773,0
52280,-0.339121222496033,0
52390,-0.341399997472763,0
52500,-0.340157032012939,0
52610,-0.340157032012939,0
52720,-0.34077849984169,0
52830,-0.340364187955856,0
52940,-0.339742720127106,0
53050,-0.340571343898773,0
53160,-0.341192841529846,0
53270,-0.341399997472763,0
53380,-0.340364187955856,0
53490,-0.340157032012939,0
53590,-0.340985685586929,0
53700,-0.340157032012939,0
53810,-0.339949876070023,0
53920,-0.340364187955856,0
54030,-0.34077849984169,0
54140,-0.34077849984169,0
54250,-0.341192841529846,0
54360,-0.340364187955856,0
54470,-0.340985685586929,0
54580,-0.340157032012939,0
54690,-0.340985685586929,0
54800,-0.340157032012939,0
54900,-0.339949876070023,0
55010,-0.339949876070023,0
55120,-0.339742720127106,0
55230,-0.340157032012939,0
55340,-0.340364187955856,0
55450,-0.340985685586929,0
55560,-0.34077849984169,0
55670,-0.340571343898773,0
55780,-0.340571343898773,0
55890,-0.339949876070023,0
56000,-0.340571343898773,0
56110,-0.34077849984169,0
56220,-0.340364187955856,0
56320,-0.340571343898773,0
56430,-0.339535564184189,0
56540,-0.34077849984169,0
56650,-0.340157032012939,0
56760,-0.339742720127106,0
56870,-0.341399997472763,0
56980,-0.34077849984169,0
57090,-0.340364187955856,0
57200,-0.339949876070023,0
57310,-0.339742720127106,0
57420,-0.339121222496033,0
57530,-0.339742720127106,0
57630,-0.339949876070023,0
57740,-0.340157032012939,0
57850,-0.34077849984169,0
57960,-0.33932837843895,0
58070,-0.34077849984169,0
58180,-0.340157032012939,0
58290,-0.340364187955856,0
58400,-0.339949876070023,0
58510,-0.34077849984169,0
58620,-0.34077849984169,0
58730,-0.34077849984169,0
58840,-0.340364187955856,0
58950,-0.34077849984169,0
59050,-0.34077849984169,0
59160,-0.340571343898773,0
59270,-0.339949876070023,0
59380,-0.34160715341568,0
59490,-0.34077849984169,0
59600,-0.34077849984169,0
59710,-0.340985685586929,0
59820,-0.340364187955856,0
59930,-0.34077849984169,0
60040,-0.340571343898773,0
60150,-0.34077849984169,0
60260,-0.340364187955856,0
60360,-0.34077849984169,0
60470,-0.340364187955856,0
60580,-0.340571343898773,0
60690,-0.34077849984169,0
60800,-0.339535564184189,0
60910,-0.340985685586929,0
61020,-0.340985685586929,0
61130,-0.339742720127106,0
61240,-0.339535564184189,0
61350,-0.340571343898773,0
61460,-0.34160715341568,0
61570,-0.340985685586929,0
61680,-0.341192841529846,0
61780,-0.341399997472763,0
61890,-0.340571343898773,0
62000,-0.340571343898773,0
62110,-0.340157032012939,0
62220,-0.340364187955856,0
62330,-0.339535564184189,0
62440,-0.340364187955856,0
62550,-0.340985685586929,0
62660,-0.340985685586929,0
62770,-0.34077849984169,0
62880,-0.340364187955856,0
62990,-0.341192841529846,0
63090,-0.34160715341568,0
63200,-0.34077849984169,0
63310,-0.340571343898773,0
63420,-0.340985685586929,0
63530,-0.340364187955856,0
63640,-0.341192841529846,0
63750,-0.341814309358597,0
63860,-0.341399997472763,0
63970,-0.339949876070023,0
64080,-0.340157032012939,0
64190,-0.34160715341568,0
64300,-0.34160715341568,0
64410,-0.339949876070023,0
64510,-0.34077849984169,0
64620,-0.339949876070023,0
64730,-0.340985685586929,0
64840,-0.340985685586929,0
64950,-0.34077849984169,0
65060,-0.340985685586929,0
65170,-0.340985685586929,0
65280,-0.342021465301514,0
65390,-0.340157032012939,0
65500,-0.342228621244431,0
65610,-0.34077849984169,0
65720,-0.34077849984169,0
65820,-0.341192841529846,0
65930,-0.340571343898773,0
66040,-0.341192841529846,0
66150,-0.339742720127106,0
66260,-0.340985685586929,0
66370,-0.34077849984169,0
66480,-0.340571343898773,0
66590,-0.340364187955856,0
66700,-0.340985685586929,0
66810,-0.34077849984169,0
66920,-0.340985685586929,0
67030,-0.339949876070023,0
67140,-0.34077849984169,0
67240,-0.340157032012939,0
67350,-0.341192841529846,0
67460,-0.340571343898773,0
67570,-0.34077849984169,0
67680,-0.34160715341568,0
67790,-0.340571343898773,0
67900,-0.341192841529846,0
68010,-0.339949876070023,0
68120,-0.339949876070023,0
68230,-0.342021465301514,0
68340,-0.340364187955856,0
68450,-0.341399997472763,0
68550,-0.341814309358597,0
68660,-0.34160715341568,0
68770,-0.340571343898773,0
68880,-0.340985685586929,0
68990,-0.341399997472763,0
69100,-0.340157032012939,0
69210,-0.340985685586929,0
69320,-0.340364187955856,0
69430,-0.34077849984169,0
69540,-0.339535564184189,0
69650,-0.341399997472763,0
69760,-0.34077849984169,0
69870,-0.34077849984169,0
69970,-0.340985685586929,0
70080,-0.340985685586929,0
70190,-0.340157032012939,0
70300,-0.34160715341568,0
70410,-0.340985685586929,0
70520,-0.341192841529846,0
70630,-0.341192841529846,0
70740,-0.340157032012939,0
70850,-0.341399997472763,0
70960,-0.340571343898773,0
71070,-0.341399997472763,0
71180,-0.34160715341568,0
71280,-0.340157032012939,0
71390,-0.340364187955856,0
71500,-0.34077849984169,0
71610,-0.340364187955856,0
71730,-0.339742720127106,0
71830,-0.341399997472763,0
71940,-0.339535564184189,0
72050,-0.34160715341568,0
72160,-0.339535564184189,0
72270,-0.342021465301514,0
72380,-0.340364187955856,0
72490,-0.341192841529846,0
72600,-0.340571343898773,0
72700,-0.339949876070023,0
72810,-0.341192841529846,0
72920,-0.341814309358597,0
73030,-0.340571343898773,0
73140,-0.338914066553116,0
73250,-0.341399997472763,0
73360,-0.340364187955856,0
73470,-0.340364187955856,0
73580,-0.339742720127106,0
73690,-0.340364187955856,0
73800,-0.340985685586929,0
73910,-0.341399997472763,0
74010,-0.340571343898773,0
74120,-0.34077849984169,0
74230,-0.340364187955856,0
74340,-0.340985685586929,0
74450,-0.341399997472763,0
74560,-0.340157032012939,0
74670,-0.339949876070023,0
74780,-0.341399997472763,0
74890,-0.341399997472763,0
75000,-0.340364187955856,0
75110,-0.340364187955856,0
75220,-0.341192841529846,0
75330,-0.34077849984169,0
75430,-0.34077849984169,0
75540,-0.340571343898773,0
75650,-0.341399997472763,0
75760,-0.34077849984169,0
75870,-0.340157032012939,0
75980,-0.340364187955856,0
76090,-0.342021465301514,0
76200,-0.340571343898773,0
76310,-0.340571343898773,0
76420,-0.341399997472763,0
76530,-0.342021465301514,0
76640,-0.340364187955856,0
76740,-0.340571343898773,0
76850,-0.340571343898773,0
76960,-0.342850118875504,0
77070,-0.34160715341568,0
77180,-0.340985685586929,0
77290,-0.34160715341568,0
77400,-0.341192841529846,0
77510,-0.33932837843895,0
77620,-0.34077849984169,0
77730,-0.34077849984169,0
77840,-0.340985685586929,0
77950,-0.34077849984169,0
78060,-0.34077849984169,0
78160,-0.340571343898773,0
78270,-0.33932837843895,0
78380,-0.340985685586929,0
78490,-0.341814309358597,0
78600,-0.341399997472763,0
78710,-0.34077849984169,0
78820,-0.340157032012939,0
78930,-0.341399997472763,0
79040,-0.341814309358597,0
79150,-0.34160715341568,0
79260,-0.340157032012939,0
79370,-0.340364187955856,0
79470,-0.339949876070023,0
79580,-0.340985685586929,0
79690,-0.34077849984169,0
79800,-0.340985685586929,0
79910,-0.341814309358597,0
80020,-0.339742720127106,0
80130,-0.34160715341568,0
80240,-0.34160715341568,0
80350,-0.340985685586929,0
80460,-0.341192841529846,0
80570,-0.341814309358597,0
80680,-0.340364187955856,0
80790,-0.34160715341568,0
80890,-0.341399997472763,0
81000,-0.340364187955856,0
81110,-0.340157032012939,0
81220,-0.340157032012939,0
81330,-0.340985685586929,0
81440,-0.340985685586929,0
81550,-0.340571343898773,0
81660,-0.340364187955856,0
81770,-0.340985685586929,0
81880,-0.340157032012939,0
81990,-0.340364187955856,0
82100,-0.34077849984169,0
82200,-0.340571343898773,0
82310,-0.34160715341568,0
82420,-0.341814309358597,0
82530,-0.340985685586929,0
82640,-0.339949876070023,0
82750,-0.340985685586929,0
82860,-0.339949876070023,0
82970,-0.339949876070023,0
83080,-0.340571343898773,0
83190,-0.340985685586929,0
83300,-0.34077849984169,0
83410,-0.34243580698967,0
83520,-0.34077849984169,0
83620,-0.341192841529846,0
83730,-0.339535564184189,0
83840,-0.341814309358597,0
83950,-0.341399997472763,0
84060,-0.340571343898773,0
84170,-0.340571343898773,0
84280,-0.340364187955856,0
84390,-0.34077849984169,0
84500,-0.341192841529846,0
84610,-0.340985685586929,0
84720,-0.341399997472763,0
84830,-0.340571343898773,0
84930,-0.34160715341568,0
85040,-0.340985685586929,0
85150,-0.34077849984169,0
85260,-0.340364187955856,0
85370,-0.340985685586929,0
85480,-0.341192841529846,0
85590,-0.340571343898773,0
85700,-0.341814309358597,0
85810,-0.34160715341568,0
85920,-0.341192841529846,0
86030,-0.340157032012939,0
86140,-0.341192841529846,0
86250,-0.339949876070023,0
86350,-0.341192841529846,0
86460,-0.340364187955856,0
86570,-0.342021465301514,0
86680,-0.340157032012939,0
86790,-0.340364187955856,0
86900,-0.339949876070023,0
87010,-0.340364187955856,0
87120,-0.340571343898773,0
87230,-0.34077849984169,0
87340,-0.341192841529846,0
87450,-0.341399997472763,0
87560,-0.340985685586929,0
87660,-0.340985685586929,0
87770,-0.340364187955856,0
87880,-0.341814309358597,0
87990,-0.340571343898773,0
88100,-0.340571343898773,0
88210,-0.34077849984169,0
88320,-0.341814309358597,0
88430,-0.341192841529846,0
88540,-0.339949876070023,0
88650,-0.341192841529846,0
88760,-0.34243580698967,0
88870,-0.340157032012939,0
88980,-0.340364187955856,0
89080,-0.341192841529846,0
89190,-0.340364187955856,0
89300,-0.34077849984169,0
89410,-0.340571343898773,0
89520,-0.34077849984169,0
89630,-0.341399997472763,0
89740,-0.339949876070023,0
89850,-0.34160715341568,0
89960,-0.34160715341568,0
90070,-0.340571343898773,0
90180,-0.339949876070023,0
90290,-0.340571343898773,0
90390,-0.341399997472763,0
90500,-0.341399997472763,0
90610,-0.339949876070023,0
90720,-0.341814309358597,0
90830,-0.34077849984169,0
90940,-0.341192841529846,0
91050,-0.340157032012939,0
91160,-0.340364187955856,0
91270,-0.340364187955856,0
91380,-0.34077849984169,0
91490,-0.340985685586929,0
91600,-0.342021465301514,0
91710,-0.340364187955856,0
91810,-0.34077849984169,0
91920,-0.341192841529846,0
92030,-0.341814309358597,0
92140,-0.34077849984169,0
92250,-0.341399997472763,0
92360,-0.340364187955856,0
92470,-0.34077849984169,0
92580,-0.34160715341568,0
92690,-0.340364187955856,0
92800,-0.341399997472763,0
92910,-0.34077849984169,0
93020,-0.340157032012939,0
93120,-0.34243580698967,0
93230,-0.341192841529846,0
93340,-0.340364187955856,0
93450,-0.34077849984169,0
93560,-0.340364187955856,0
93670,-0.340364187955856,0
93780,-0.340985685586929,0
93890,-0.340985685586929,0
94000,-0.340157032012939,0
94110,-0.341192841529846,0
94220,-0.34077849984169,0
94330,-0.340571343898773,0
94440,-0.340364187955856,0
94540,-0.340985685586929,0
94650,-0.341814309358597,0
94760,-0.34077849984169,0
94870,-0.341814309358597,0
94980,-0.340571343898773,0
95090,-0.339535564184189,0
95200,-0.34160715341568,0
95310,-0.340571343898773,0
95420,-0.340364187955856,0
95530,-0.341814309358597,0
95640,-0.342021465301514,0
95750,-0.340985685586929,0
95850,-0.340985685586929,0
95960,-0.341814309358597,0
96070,-0.340985685586929,0
96180,-0.341399997472763,0
96290,-0.341814309358597,0
96400,-0.339949876070023,0
96510,-0.340571343898773,0
96620,-0.340364187955856,0
96730,-0.341399997472763,0
96840,-0.340157032012939,0
96950,-0.34077849984169,0
97060,-0.340364187955856,0
97170,-0.340571343898773,0
97270,-0.340364187955856,0
97380,-0.342021465301514,0
97490,-0.339949876070023,0
97600,-0.34077849984169,0
97710,-0.34160715341568,0
97820,-0.340985685586929,0
97930,-0.34077849984169,0
98040,-0.340157032012939,0
98150,-0.340571343898773,0
98260,-0.341192841529846,0
98370,-0.342021465301514,0
98480,-0.342642962932587,0
98580,-0.341399997472763,0
98690,-0.341192841529846,0
98800,-0.340157032012939,0
98910,-0.340571343898773,0
99020,-0.342228621244431,0
99130,-0.342228621244431,0
99240,-0.341192841529846,0
99350,-0.340364187955856,0
99460,-0.341399997472763,0
99570,-0.34160715341568,0
99680,-0.341399997472763,0
99790,-0.341399997472763,0
99900,-0.340157032012939,0
100000,-0.34077849984169,0
100110,-0.341814309358597,0
100220,-0.340571343898773,0
100330,-0.34077849984169,0
100440,-0.341399997472763,0
100550,-0.341399997472763,0
100660,-0.340985685586929,0
100770,-0.34160715341568,0
100880,-0.340985685586929,0
100990,-0.340571343898773,0
101100,-0.341192841529846,0
101210,-0.341399997472763,0
101310,-0.340571343898773,0
101420,-0.340364187955856,0
101530,-0.340157032012939,0
101640,-0.341814309358597,0
101750,-0.34160715341568,0
101860,-0.341399997472763,0
101970,-0.341192841529846,0
102080,-0.339949876070023,0
102190,-0.341399997472763,0
102300,-0.341192841529846,0
102410,-0.34160715341568,0
102520,-0.340157032012939,0
102630,-0.340364187955856,0
102730,-0.341192841529846,0
102840,-0.340571343898773,0
102950,-0.341399997472763,0
103060,-0.34243580698967,0
103170,-0.34077849984169,0
103280,-0.340985685586929,0
103390,-0.341192841529846,0
103500,-0.340364187955856,0
103610,-0.342228621244431,0
103720,-0.34160715341568,0
103830,-0.341814309358597,0
103940,-0.340571343898773,0
104040,-0.339949876070023,0
104150,-0.341814309358597,0
104260,-0.340985685586929,0
104370,-0.34160715341568,0
104480,-0.340157032012939,0
104590,-0.341399997472763,0
104700,-0.34077849984169,0
104810,-0.34160715341568,0
104920,-0.340985685586929,0
105030,-0.340985685586929,0
105140,-0.340571343898773,0
105250,-0.340364187955856,0
105360,-0.342228621244431,0
105460,-0.340985685586929,0
105570,-0.34077849984169,0
105680,-0.340364187955856,0
105790,-0.341399997472763,0
105900,-0.341192841529846,0
106010,-0.34160715341568,0
106120,-0.340985685586929,0
106230,-0.341399997472763,0
106340,-0.34077849984169,0
106450,-0.34077849984169,0
106560,-0.340985685586929,0
106670,-0.341814309358597,0
106770,-0.340985685586929,0
106880,-0.339742720127106,0
106990,-0.341192841529846,0
107100,-0.342021465301514,0
107210,-0.341192841529846,0
107320,-0.339949876070023,0
107430,-0.341192841529846,0
107540,-0.34160715341568,0
107650,-0.339742720127106,0
107760,-0.340985685586929,0
107870,-0.340985685586929,0
107980,-0.341192841529846,0
108090,-0.34077849984169,0
108190,-0.341399997472763,0
108300,-0.341192841529846,0
108410,-0.34077849984169,0
108520,-0.34077849984169,0
108630,-0.340571343898773,0
108740,-0.34160715341568,0
108850,-0.340364187955856,0
108960,-0.340157032012939,0
109070,-0.34160715341568,0
109180,-0.341399997472763,0
109290,-0.341399997472763,0
109400,-0.340985685586929,0
109500,-0.34077849984169,0
109610,-0.339742720127106,0
109720,-0.34160715341568,0
109830,-0.340985685586929,0
109940,-0.341192841529846,0
110050,-0.340364187955856,0
110160,-0.341814309358597,0
110270,-0.341192841529846,0
110380,-0.341399997472763,0
110490,-0.34160715341568,0
110600,-0.34077849984169,0
110710,-0.34077849984169,0
110820,-0.341192841529846,0
110920,-0.34160715341568,0
111030,-0.34077849984169,0
111140,-0.340571343898773,0
111250,-0.339535564184189,0
111360,-0.341192841529846,0
111470,-0.34077849984169,0
111580,-0.341814309358597,0
111690,-0.340571343898773,0
111800,-0.341399997472763,0
111910,-0.341814309358597,0
112020,-0.340364187955856,0
112130,-0.340985685586929,0
112230,-0.342021465301514,0
112340,-0.341192841529846,0
112450,-0.340985685586929,0
112560,-0.342228621244431,0
112670,-0.341192841529846,0
112780,-0.341192841529846,0
112890,-0.340985685586929,0
113000,-0.341192841529846,0
113110,-0.340571343898773,0
113220,-0.340364187955856,0
113330,-0.341814309358597,0
113440,-0.34160715341568,0
113550,-0.340157032012939,0
113650,-0.340157032012939,0
113760,-0.340571343898773,0
113870,-0.34160715341568,0
113980,-0.341814309358597,0
114090,-0.34077849984169,0
114200,-0.341399997472763,0
114310,-0.34160715341568,0
114420,-0.341192841529846,0
114530,-0.340364187955856,0
114640,-0.341399997472763,0
114750,-0.34160715341568,0
114860,-0.341399997472763,0
114960,-0.34077849984169,0
115070,-0.34077849984169,0
115180,-0.340157032012939,0
115290,-0.341399997472763,0
115400,-0.341814309358597,0
115510,-0.34160715341568,0
115620,-0.34243580698967,0
115730,-0.341814309358597,0
115840,-0.339535564184189,0
115950,-0.340985685586929,0
116060,-0.342021465301514,0
116170,-0.340985685586929,0
116280,-0.340985685586929,0
116380,-0.340985685586929,0
116490,-0.340571343898773,0
116600,-0.341814309358597,0
116710,-0.342021465301514,0
116820,-0.34243580698967,0
116930,-0.339742720127106,0
117040,-0.341814309358597,0
117150,-0.340571343898773,0
117260,-0.34077849984169,0
117370,-0.339949876070023,0
117480,-0.340364187955856,0
117590,-0.341192841529846,0
117700,-0.341192841529846,0
117800,-0.340985685586929,0
117910,-0.341399997472763,0
118020,-0.340157032012939,0
118130,-0.341192841529846,0
118240,-0.339949876070023,0
118350,-0.340985685586929,0
118460,-0.339949876070023,0
118570,-0.34077849984169,0
118680,-0.34160715341568,0
118790,-0.34077849984169,0
118900,-0.341399997472763,0
119010,-0.34077849984169,0
119110,-0.340364187955856,0
119220,-0.340571343898773,0
119330,-0.34160715341568,0
119440,-0.340571343898773,0
119550,-0.340985685586929,0
119660,-0.34077849984169,0
119770,-0.341814309358597,0
119880,-0.340364187955856,0
119990,-0.34077849984169,0
120100,-0.340985685586929,0
120210,-0.341814309358597,0
120320,-0.34077849984169,0
120430,-0.34160715341568,0
120530,-0.340985685586929,0
120640,-0.34160715341568,0
120750,-0.341814309358597,0
120860,-0.34160715341568,0
120970,-0.342228621244431,0
121080,-0.340985685586929,0
121190,-0.342021465301514,0
121300,-0.340571343898773,0
121410,-0.341399997472763,0
121520,-0.34077849984169,0
121630,-0.341192841529846,0
121740,-0.340364187955856,0
121840,-0.340985685586929,0
121950,-0.341814309358597,0
122060,-0.34160715341568,0
122170,-0.34077849984169,0
122280,-0.340985685586929,0
122390,-0.34077849984169,0
122500,-0.340985685586929,0
122610,-0.341814309358597,0
122720,-0.340571343898773,0
122830,-0.342021465301514,0
122940,-0.341814309358597,0
123050,-0.341399997472763,0
123160,-0.34077849984169,0
123260,-0.341192841529846,0
123370,-0.340571343898773,0
123480,-0.34160715341568,0
123590,-0.342021465301514,0
123700,-0.34077849984169,0
123810,-0.341192841529846,0
123920,-0.340985685586929,0
124030,-0.340364187955856,0
124140,-0.34077849984169,0
124250,-0.34077849984169,0
124360,-0.34160715341568,0
124470,-0.339742720127106,0
124570,-0.340571343898773,0
124680,-0.340571343898773,0
124790,-0.341399997472763,0
124900,-0.340571343898773,0
125010,-0.34077849984169,0
125120,-0.340571343898773,0
125230,-0.341814309358597,0
125340,-0.34160715341568,0
125450,-0.341192841529846,0
125560,-0.339535564184189,0
125670,-0.34077849984169,0
125780,-0.340985685586929,0
125890,-0.340364187955856,0
125990,-0.34077849984169,0
126100,-0.341814309358597,0
126210,-0.340571343898773,0
126320,-0.34077849984169,0
126430,-0.341399997472763,0
126540,-0.339949876070023,0
126650,-0.340571343898773,0
126760,-0.34077849984169,0
126870,-0.342228621244431,0
126980,-0.342021465301514,0
127090,-0.341399997472763,0
127200,-0.339742720127106,0
127300,-0.34160715341568,0
127410,-0.342228621244431,0
127520,-0.341399997472763,0
127630,-0.340571343898773,0
127740,-0.342228621244431,0
127850,-0.339742720127106,0
127960,-0.340364187955856,0
128070,-0.340364187955856,0
128180,-0.34243580698967,0
128290,-0.341192841529846,0
128400,-0.341399997472763,0
128510,-0.341814309358597,0
128620,-0.340985685586929,0
128720,-0.340364187955856,0
128830,-0.339949876070023,0
128940,-0.340364187955856,0
129050,-0.341814309358597,0
129160,-0.340571343898773,0
129270,-0.34077849984169,0
129380,-0.340571343898773,0
129490,-0.341814309358597,0
129600,-0.34077849984169,0
129710,-0.34160715341568,0
129820,-0.34077849984169,0
129930,-0.34077849984169,0
130030,-0.34077849984169,0
130140,-0.341192841529846,0
130250,-0.342228621244431,0
130360,-0.340985685586929,0
130470,-0.341399997472763,0
130580,-0.341399997472763,0
130690,-0.342228621244431,0
130800,-0.341192841529846,0
130910,-0.342021465301514,0
131020,-0.34077849984169,0
131130,-0.341192841529846,0
131240,-0.340985685586929,0
131350,-0.340985685586929,0
131450,-0.340985685586929,0
131560,-0.34077849984169,0
131670,-0.341399997472763,0
131780,-0.34160715341568,0
131890,-0.340571343898773,0
132000,-0.341399997472763,0
132110,-0.341814309358597,0
132220,-0.340985685586929,0
132330,-0.341399997472763,0
132440,-0.340571343898773,0
132550,-0.34243580698967,0
132660,-0.34160715341568,0
132760,-0.341814309358597,0
132870,-0.340364187955856,0
132980,-0.339949876070023,0
133090,-0.342228621244431,0
133200,-0.341399997472763,0
133310,-0.34077849984169,0
133420,-0.341192841529846,0
133530,-0.341192841529846,0
133640,-0.341814309358597,0
133750,-0.340364187955856,0
133860,-0.342021465301514,0
133970,-0.340571343898773,0
134080,-0.340571343898773,0
134180,-0.340985685586929,0
134290,-0.340364187955856,0
134400,-0.33932837843895,0
134510,-0.341399997472763,0
134620,-0.34077849984169,0
134730,-0.341192841529846,0
134840,-0.341399997472763,0
134950,-0.340571343898773,0
135060,-0.342021465301514,0
135170,-0.340985685586929,0
135280,-0.341399997472763,0
135390,-0.34077849984169,0
135490,-0.340364187955856,0
135600,-0.341399997472763,0
135710,-0.34160715341568,0
135820,-0.34160715341568,0
135930,-0.341192841529846,0
136040,-0.340571343898773,0
136150,-0.340571343898773,0
136260,-0.339949876070023,0
136370,-0.340985685586929,0
136480,-0.341399997472763,0
136590,-0.340364187955856,0
136700,-0.339742720127106,0
136810,-0.341814309358597,0
136910,-0.340157032012939,0
137020,-0.341192841529846,0
137130,-0.341814309358597,0
137240,-0.34160715341568,0
137350,-0.341399997472763,0
137460,-0.340571343898773,0
137570,-0.341192841529846,0
137680,-0.340571343898773,0
137790,-0.341814309358597,0
137900,-0.341814309358597,0
138010,-0.341192841529846,0
138120,-0.341192841529846,0
138220,-0.342021465301514,0
138330,-0.341814309358597,0
138440,-0.341192841529846,0
138550,-0.340364187955856,0
138660,-0.341814309358597,0
138770,-0.341814309358597,0
138880,-0.34077849984169,0
138990,-0.341192841529846,0
139100,-0.34077849984169,0
139210,-0.342021465301514,0
139320,-0.340157032012939,0
139430,-0.340985685586929,0
139540,-0.342021465301514,0
139640,-0.34160715341568,0
139750,-0.340985685586929,0
139860,-0.341814309358597,0
139970,-0.341399997472763,0
140080,-0.340364187955856,0
140190,-0.34077849984169,0
140300,-0.340985685586929,0
140410,-0.34160715341568,0
140520,-0.340985685586929,0
140630,-0.340571343898773,0
140740,-0.341192841529846,0
140850,-0.340364187955856,0
140950,-0.340985685586929,0
141060,-0.339742720127106,0
141170,-0.340985685586929,0
141280,-0.339535564184189,0
141390,-0.341814309358597,0
141500,-0.340985685586929,0
141610,-0.340985685586929,0
141720,-0.340571343898773,0
141830,-0.34077849984169,0
141940,-0.342228621244431,0
142050,-0.34077849984169,0
142160,-0.340364187955856,0
142270,-0.342228621244431,0
142370,-0.340985685586929,0
142480,-0.341192841529846,0
142590,-0.34160715341568,0
142700,-0.342642962932587,0
142810,-0.34160715341568,0
142920,-0.340985685586929,0
143030,-0.340364187955856,0
143140,-0.340985685586929,0
143250,-0.341399997472763,0
143360,-0.341192841529846,0
143470,-0.340571343898773,0
143580,-0.342021465301514,0
143680,-0.341814309358597,0
143790,-0.340985685586929,0
143900,-0.341399997472763,0
144020,-0.339535564184189,0
144120,-0.340571343898773,0
144230,-0.342021465301514,0
144340,-0.34160715341568,0
144450,-0.34077849984169,0
144560,-0.341399997472763,0
144670,-0.342021465301514,0
144780,-0.341192841529846,0
144890,-0.342021465301514,0
145000,-0.34160715341568,0
145100,-0.34160715341568,0
145210,-0.340157032012939,0
145320,-0.341192841529846,0
145430,-0.34077849984169,0
145540,-0.341192841529846,0
145650,-0.34160715341568,0
145760,-0.341399997472763,0
145870,-0.34160715341568,0
145980,-0.34077849984169,0
146090,-0.340985685586929,0
146200,-0.34160715341568,0
146310,-0.34160715341568,0
146410,-0.34077849984169,0
146520,-0.341814309358597,0
146630,-0.341192841529846,0
146740,-0.34077849984169,0
146850,-0.341399997472763,0
146960,-0.341399997472763,0
147070,-0.341399997472763,0
147180,-0.34077849984169,0
147290,-0.339742720127106,0
147400,-0.341814309358597,0
147510,-0.34077849984169,0
147620,-0.340364187955856,0
147730,-0.342021465301514,0
147830,-0.341192841529846,0
147940,-0.342021465301514,0
148050,-0.340985685586929,0
148160,-0.340985685586929,0
148270,-0.339535564184189,0
148380,-0.34077849984169,0
148490,-0.340364187955856,0
148600,-0.340571343898773,0
148710,-0.340985685586929,0
148820,-0.341814309358597,0
148930,-0.341192841529846,0
149040,-0.340985685586929,0
149140,-0.341399997472763,0
149250,-0.34077849984169,0
149360,-0.342228621244431,0
149470,-0.341192841529846,0
149580,-0.34160715341568,0
149690,-0.340985685586929,0
149800,-0.34077849984169,0
149910,-0.34160715341568,0
150020,-0.341814309358597,0
150130,-0.340985685586929,0
150240,-0.339949876070023,0
150350,-0.34077849984169,0
150460,-0.340571343898773,0
150560,-0.341814309358597,0
150670,-0.342228621244431,0
150780,-0.34160715341568,0
150890,-0.340985685586929,0
151000,-0.340571343898773,0
151110,-0.340157032012939,0
151220,-0.34160715341568,0
151330,-0.340985685586929,0
151440,-0.341192841529846,0
151550,-0.340985685586929,0
151660,-0.340364187955856,0
151770,-0.340157032012939,0
151870,-0.342021465301514,0
151980,-0.34243580698967,0
152090,-0.342228621244431,0
152200,-0.340571343898773,0
152310,-0.340571343898773,0
152420,-0.340985685586929,0
152530,-0.340985685586929,0
152640,-0.34243580698967,0
152750,-0.340157032012939,0
152860,-0.340157032012939,0
152970,-0.341399997472763,0
153080,-0.341814309358597,0
153190,-0.34077849984169,0
153290,-0.342228621244431,0
153400,-0.341192841529846,0
153510,-0.341192841529846,0
153620,-0.340571343898773,0
153730,-0.340985685586929,0
153840,-0.341192841529846,0
153950,-0.340985685586929,0
154060,-0.340985685586929,0
154170,-0.341399997472763,0
154280,-0.340571343898773,0
154390,-0.340985685586929,0
154500,-0.340985685586929,0
154600,-0.341399997472763,0
154710,-0.341814309358597,0
154820,-0.340985685586929,0
154930,-0.34077849984169,0
155040,-0.341399997472763,0
155150,-0.341399997472763,0
155260,-0.34160715341568,0
155370,-0.34243580698967,0
155480,-0.341399997472763,0
155590,-0.340985685586929,0
155700,-0.340985685586929,0
155810,-0.34160715341568,0
155920,-0.341814309358597,0
156020,-0.34160715341568,0
156130,-0.339742720127106,0
156240,-0.340364187955856,0
156350,-0.341399997472763,0
156460,-0.340571343898773,0
156570,-0.341399997472763,0
156680,-0.342228621244431,0
156790,-0.34160715341568,0
156900,-0.34077849984169,0
157010,-0.341192841529846,0
157120,-0.34077849984169,0
157230,-0.340985685586929,0
157330,-0.34077849984169,0
157440,-0.340364187955856,0
157550,-0.340985685586929,0
157660,-0.34077849984169,0
157770,-0.340364187955856,0
157880,-0.34077849984169,0
157990,-0.342642962932587,0
158100,-0.340985685586929,0
158210,-0.341814309358597,0
158320,-0.341399997472763,0
158430,-0.341192841529846,0
158540,-0.340571343898773,0
158650,-0.341814309358597,0
158750,-0.340571343898773,0
158860,-0.341399997472763,0
158970,-0.340985685586929,0
159080,-0.341192841529846,0
159190,-0.340571343898773,0
159300,-0.340364187955856,0
159410,-0.34077849984169,0
159520,-0.341814309358597,0
159630,-0.340364187955856,0
159740,-0.341399997472763,0
159850,-0.341192841529846,0
159960,-0.341814309358597,0
160060,-0.34077849984169,0
160170,-0.340364187955856,0
160280,-0.341399997472763,0
160390,-0.341192841529846,0
160500,-0.341814309358597,0
160610,-0.340985685586929,0
160720,-0.339949876070023,0
160830,-0.340985685586929,0
160940,-0.34160715341568,0
161050,-0.340985685586929,0
161160,-0.340571343898773,0
161270,-0.339742720127106,0
161380,-0.341192841529846,0
161480,-0.340364187955856,0
161590,-0.340985685586929,0
161700,-0.341192841529846,0
161810,-0.34077849984169,0
161920,-0.341192841529846,0
162030,-0.341399997472763,0
162140,-0.341399997472763,0
162250,-0.34160715341568,0
162360,-0.340985685586929,0
162470,-0.340571343898773,0
162580,-0.342228621244431,0
162690,-0.342850118875504,0
162790,-0.341399997472763,0
162900,-0.341192841529846,0
163010,-0.341399997472763,0
163120,-0.341814309358597,0
163230,-0.341399997472763,0
163340,-0.340985685586929,0
163450,-0.340364187955856,0
163560,-0.34077849984169,0
163670,-0.341399997472763,0
163780,-0.340985685586929,0
163890,-0.34077849984169,0
164000,-0.340985685586929,0
164110,-0.340985685586929,0
164210,-0.341192841529846,0
164320,-0.341814309358597,0
164430,-0.342021465301514,0
164540,-0.341399997472763,0
164650,-0.341399997472763,0
164760,-0.340985685586929,0
164870,-0.341814309358597,0
164980,-0.34160715341568,0
165090,-0.341399997472763,0
165200,-0.34077849984169,0
165310,-0.34160715341568,0
165420,-0.340157032012939,0
165520,-0.340571343898773,0
165630,-0.34160715341568,0
165740,-0.341399997472763,0
165860,-0.34243580698967,0
165960,-0.341192841529846,0
166070,-0.340985685586929,0
166180,-0.341814309358597,0
166290,-0.342021465301514,0
166400,-0.341814309358597,0
166510,-0.341814309358597,0
166620,-0.341192841529846,0
166730,-0.34160715341568,0
166840,-0.34077849984169,0
166940,-0.341399997472763,0
167050,-0.34077849984169,0
167160,-0.340157032012939,0
167270,-0.34077849984169,0
167380,-0.34160715341568,0
167490,-0.341192841529846,0
167600,-0.341399997472763,0
167710,-0.340985685586929,0
167820,-0.340985685586929,0
167930,-0.341814309358597,0
168040,-0.341399997472763,0
168150,-0.340985685586929,0
168250,-0.341192841529846,0
168360,-0.340985685586929,0
168470,-0.340985685586929,0
168580,-0.340985685586929,0
168690,-0.342228621244431,0
168800,-0.340985685586929,0
168910,-0.340364187955856,0
169020,-0.340571343898773,0
169130,-0.34077849984169,0
169240,-0.341192841529846,0
169350,-0.340364187955856,0
169460,-0.341399997472763,0
169570,-0.340571343898773,0
169670,-0.341399997472763,0
169780,-0.340364187955856,0
169890,-0.34160715341568,0
170000,-0.340571343898773,0
170110,-0.340157032012939,0
170220,-0.341192841529846,0
170330,-0.340364187955856,0
170440,-0.342021465301514,0
170550,-0.34077849984169,0
170660,-0.342021465301514,0
170770,-0.340364187955856,0
170880,-0.341192841529846,0
170980,-0.342021465301514,0
171090,-0.340985685586929,0
171200,-0.341399997472763,0
171310,-0.340571343898773,0
171420,-0.340985685586929,0
171530,-0.342228621244431,0
171640,-0.341192841529846,0
171750,-0.341399997472763,0
171860,-0.341399997472763,0
171970,-0.342021465301514,0
172080,-0.340985685586929,0
172190,-0.339949876070023,0
172300,-0.341192841529846,0
172400,-0.340571343898773,0
172510,-0.341814309358597,0
172620,-0.341814309358597,0
172730,-0.34160715341568,0
172840,-0.340985685586929,0
172960,-0.341192841529846,0
173060,-0.340985685586929,0
173170,-0.34077849984169,0
173280,-0.34243580698967,0
173390,-0.341192841529846,0
173500,-0.341192841529846,0
173610,-0.341192841529846,0
173710,-0.341192841529846,0
173820,-0.340985685586929,0
173930,-0.340985685586929,0
174040,-0.341399997472763,0
174150,-0.340985685586929,0
174260,-0.340571343898773,0
174370,-0.340985685586929,0
174480,-0.340157032012939,0
174590,-0.340364187955856,0
174700,-0.341399997472763,0
174810,-0.341814309358597,0
174920,-0.34077849984169,0
175030,-0.34243580698967,0
175130,-0.340364187955856,0
175240,-0.341192841529846,0
175350,-0.340571343898773,0
175460,-0.34160715341568,0
175570,-0.342021465301514,0
175680,-0.340985685586929,0
175790,-0.342021465301514,0
175900,-0.340985685586929,0
176010,-0.341192841529846,0
176120,-0.341192841529846,0
176230,-0.341814309358597,0
176340,-0.340985685586929,0
176440,-0.340364187955856,0
176550,-0.340364187955856,0
176660,-0.340985685586929,0
176770,-0.341192841529846,0
176880,-0.341814309358597,0
176990,-0.341814309358597,0
177100,-0.341399997472763,0
177210,-0.341192841529846,0
177320,-0.341399997472763,0
177430,-0.341192841529846,0
177540,-0.341192841529846,0
177650,-0.341399997472763,0
177760,-0.34160715341568,0
177860,-0.341814309358597,0
177970,-0.34077849984169,0
178080,-0.34160715341568,0
178190,-0.340571343898773,0
178300,-0.340364187955856,0
178410,-0.342228621244431,0
178520,-0.340571343898773,0
178630,-0.342228621244431,0
178740,-0.340985685586929,0
178850,-0.34077849984169,0
178960,-0.340364187955856,0
179070,-0.342021465301514,0
179170,-0.340985685586929,0
179280,-0.34160715341568,0
179390,-0.34077849984169,0
179500,-0.34077849984169,0
179610,-0.341192841529846,0
179720,-0.340985685586929,0
179830,-0.339949876070023,0
179940,-0.340571343898773,0
180050,-0.341814309358597,0
180160,-0.341192841529846,0
180270,-0.340985685586929,0
180380,-0.34077849984169,0
180490,-0.34160715341568,0
180590,-0.340985685586929,0
180700,-0.34160715341568,0
180810,-0.342021465301514,0
180920,-0.34160715341568,0
181030,-0.34077849984169,0
181140,-0.342021465301514,0
181250,-0.341192841529846,0
181360,-0.340985685586929,0
181470,-0.342021465301514,0
181580,-0.341399997472763,0
181690,-0.341814309358597,0
181800,-0.342021465301514,0
181900,-0.341814309358597,0
182010,-0.340985685586929,0
182120,-0.341399997472763,0
182230,-0.342021465301514,0
182340,-0.341399997472763,0
182450,-0.341399997472763,0
182560,-0.341192841529846,0
182670,-0.341192841529846,0
182780,-0.342021465301514,0
182890,-0.342021465301514,0
183000,-0.34160715341568,0
183110,-0.340157032012939,0
183220,-0.340364187955856,0
183320,-0.340985685586929,0
183430,-0.341192841529846,0
183540,-0.340571343898773,0
183650,-0.341399997472763,0
183760,-0.340571343898773,0
183870,-0.341192841529846,0
183980,-0.34160715341568,0
184090,-0.340985685586929,0
184200,-0.341192841529846,0
184310,-0.340571343898773,0
184420,-0.34160715341568,0
184530,-0.34160715341568,0
184630,-0.341192841529846,0
184740,-0.341192841529846,0
184850,-0.341399997472763,0
184960,-0.340985685586929,0
185070,-0.340985685586929,0
185180,-0.340985685586929,0
185290,-0.341399997472763,0
185400,-0.342021465301514,0
185510,-0.341814309358597,0
185620,-0.34305727481842,0
185730,-0.340571343898773,0
185840,-0.342021465301514,0
185950,-0.34160715341568,0
186050,-0.340571343898773,0
186160,-0.341192841529846,0
186270,-0.341814309358597,0
186380,-0.34077849984169,0
186490,-0.340364187955856,0
186600,-0.340364187955856,0
186710,-0.340985685586929,0
186820,-0.342021465301514,0
186930,-0.340985685586929,0
187040,-0.341192841529846,0
187150,-0.34160715341568,0
187260,-0.341814309358597,0
187360,-0.341814309358597,0
187470,-0.341399997472763,0
187580,-0.342021465301514,0
187690,-0.34160715341568,0
187800,-0.342642962932587,0
187910,-0.342021465301514,0
188020,-0.340364187955856,0
188130,-0.34077849984169,0
188240,-0.342021465301514,0
188350,-0.34077849984169,0
188460,-0.340364187955856,0
188570,-0.341192841529846,0
188680,-0.340364187955856,0
188780,-0.340985685586929,0
188890,-0.34160715341568,0
189000,-0.341814309358597,0
189110,-0.342021465301514,0
189220,-0.340985685586929,0
189330,-0.341192841529846,0
189440,-0.341192841529846,0
189550,-0.34243580698967,0
189660,-0.340157032012939,0
189770,-0.341192841529846,0
189880,-0.341399997472763,0
189990,-0.34077849984169,0
190090,-0.340364187955856,0
190200,-0.34243580698967,0
190310,-0.341192841529846,0
190420,-0.341399997472763,0
190530,-0.341814309358597,0
190640,-0.341814309358597,0
190750,-0.34160715341568,0
190860,-0.341192841529846,0
190970,-0.340157032012939,0
191080,-0.340985685586929,0
191190,-0.341814309358597,0
191300,-0.341399997472763,0
191410,-0.341399997472763,0
191510,-0.341399997472763,0
191620,-0.340157032012939,0
191730,-0.342021465301514,0
191840,-0.34243580698967,0
191950,-0.341814309358597,0
192060,-0.339949876070023,0
192170,-0.340985685586929,0
192280,-0.341814309358597,0
192390,-0.342021465301514,0
192500,-0.34160715341568,0
192610,-0.34160715341568,0
192720,-0.341814309358597,0
192820,-0.34077849984169,0
192930,-0.34077849984169,0
193040,-0.341192841529846,0
193150,-0.340364187955856,0
193260,-0.340985685586929,0
193370,-0.342228621244431,0
193480,-0.340985685586929,0
193590,-0.34160715341568,0
193700,-0.340985685586929,0
193810,-0.340985685586929,0
193920,-0.34077849984169,0
194030,-0.341814309358597,0
194140,-0.341399997472763,0
194240,-0.341814309358597,0
194350,-0.341399997472763,0
194460,-0.34077849984169,0
194570,-0.340571343898773,0
194680,-0.34077849984169,0
194790,-0.342228621244431,0
194900,-0.340571343898773,0
195010,-0.34160715341568,0
195120,-0.340985685586929,0
195230,-0.340364187955856,0
195340,-0.340571343898773,0
195450,-0.341192841529846,0
195550,-0.34077849984169,0
195660,-0.339742720127106,0
195770,-0.341399997472763,0
195880,-0.34077849984169,0
195990,-0.340985685586929,0
196100,-0.341192841529846,0
196210,-0.340157032012939,0
196320,-0.342228621244431,0
196430,-0.342021465301514,0
196540,-0.34160715341568,0
196650,-0.341399997472763,0
196760,-0.340157032012939,0
196870,-0.341399997472763,0
196970,-0.34243580698967,0
197080,-0.340364187955856,0
197190,-0.341399997472763,0
197300,-0.340985685586929,0
197410,-0.340985685586929,0
197520,-0.341192841529846,0
197630,-0.34160715341568,0
197740,-0.341192841529846,0
197850,-0.34243580698967,0
197960,-0.34160715341568,0
198070,-0.342228621244431,0
198180,-0.340571343898773,0
198290,-0.339949876070023,0
198390,-0.340985685586929,0
198500,-0.341399997472763,0
198610,-0.342021465301514,0
198720,-0.341192841529846,0
198830,-0.342021465301514,0
198940,-0.34160715341568,0
199050,-0.34160715341568,0
199160,-0.34160715341568,0
199270,-0.340985685586929,0
199380,-0.341192841529846,0
199490,-0.34160715341568,0
199600,-0.342228621244431,0
199700,-0.340985685586929,0
199810,-0.342642962932587,0
199920,-0.340985685586929,0
200030,-0.34077849984169,0
200140,-0.341399997472763,0
200250,-0.341192841529846,0
200360,-0.341814309358597,0
200470,-0.34160715341568,0
200580,-0.34077849984169,0
200690,-0.342228621244431,0
200800,-0.342228621244431,0
200910,-0.340571343898773,0
201020,-0.341192841529846,0
201120,-0.34160715341568,0
201230,-0.340985685586929,0
201340,-0.340985685586929,0
201450,-0.342021465301514,0
201560,-0.34160715341568,0
201670,-0.342021465301514,0
201780,-0.341399997472763,0
201890,-0.34160715341568,0
202000,-0.341814309358597,0
202110,-0.341399997472763,0
202220,-0.341814309358597,0
202330,-0.34160715341568,0
202430,-0.341814309358597,0
202540,-0.34077849984169,0
202650,-0.341399997472763,0
202760,-0.341399997472763,0
202870,-0.340985685586929,0
202980,-0.340985685586929,0
203090,-0.340571343898773,0
203200,-0.341399997472763,0
203310,-0.340364187955856,0
203420,-0.341399997472763,0
203530,-0.341814309358597,0
203640,-0.340985685586929,0
203750,-0.340571343898773,0
203850,-0.34160715341568,0
203960,-0.341399997472763,0
204070,-0.341192841529846,0
204180,-0.341192841529846,0
204290,-0.342021465301514,0
204400,-0.342228621244431,0
204510,-0.34160715341568,0
204620,-0.34077849984169,0
204730,-0.340364187955856,0
204840,-0.340985685586929,0
204950,-0.341192841529846,0
205060,-0.341399997472763,0
205160,-0.340985685586929,0
205270,-0.34160715341568,0
205380,-0.34160715341568,0
205490,-0.340364187955856,0
205600,-0.342021465301514,0
205710,-0.342228621244431,0
205820,-0.340571343898773,0
205930,-0.341399997472763,0
206040,-0.340364187955856,0
206150,-0.341192841529846,0
206260,-0.34077849984169,0
206370,-0.340364187955856,0
206480,-0.340364187955856,0
206580,-0.342021465301514,0
206690,-0.34160715341568,0
206800,-0.340571343898773,0
206910,-0.342021465301514,0
207020,-0.340985685586929,0
207130,-0.339535564184189,0
207240,-0.341399997472763,0
207350,-0.341192841529846,0
207460,-0.341399997472763,0
207570,-0.341192841529846,0
207680,-0.340157032012939,0
207790,-0.340571343898773,0
207890,-0.341814309358597,0
208000,-0.341814309358597,0
208110,-0.341192841529846,0
208220,-0.342228621244431,0
208330,-0.34160715341568,0
208440,-0.341814309358597,0
208550,-0.340364187955856,0
208660,-0.342228621244431,0
208770,-0.341399997472763,0
208880,-0.341192841529846,0
208990,-0.340985685586929,0
209100,-0.341814309358597,0
209210,-0.34160715341568,0
209310,-0.340985685586929,0
209420,-0.34160715341568,0
209530,-0.341814309358597,0
209640,-0.342021465301514,0
209750,-0.341192841529846,0
209860,-0.340157032012939,0
209970,-0.341814309358597,0
210080,-0.34160715341568,0
210190,-0.341192841529846,0
210300,-0.342228621244431,0
210410,-0.340985685586929,0
210520,-0.340571343898773,0
210620,-0.342021465301514,0
210730,-0.34160715341568,0
210840,-0.341814309358597,0
210950,-0.340985685586929,0
211060,-0.34077849984169,0
211170,-0.340571343898773,0
211280,-0.341814309358597,0
211390,-0.342021465301514,0
211500,-0.342642962932587,0
211610,-0.341192841529846,0
211720,-0.341814309358597,0
211830,-0.34160715341568,0
211940,-0.340364187955856,0
212040,-0.340985685586929,0
212150,-0.341192841529846,0
212260,-0.340157032012939,0
212370,-0.340571343898773,0
212480,-0.342228621244431,0
212590,-0.34077849984169,0
212700,-0.34160715341568,0
212810,-0.341399997472763,0
212920,-0.34243580698967,0
213030,-0.341399997472763,0
213140,-0.34077849984169,0
213250,-0.34077849984169,0
213350,-0.34160715341568,0
213460,-0.340571343898773,0
213570,-0.341192841529846,0
213680,-0.340985685586929,0
213790,-0.342021465301514,0
213900,-0.341192841529846,0
214010,-0.342021465301514,0
214120,-0.34160715341568,0
214230,-0.339535564184189,0
214340,-0.341399997472763,0
214450,-0.340157032012939,0
214560,-0.341814309358597,0
214670,-0.34160715341568,0
214770,-0.341192841529846,0
214880,-0.341399997472763,0
214990,-0.34160715341568,0
215100,-0.34077849984169,0
215210,-0.34077849984169,0
215320,-0.34160715341568,0
215430,-0.341814309358597,0
215540,-0.341399997472763,0
215650,-0.34077849984169,0
215760,-0.340985685586929,0
215870,-0.341399997472763,0
215980,-0.340157032012939,0
216080,-0.340985685586929,0
216190,-0.34160715341568,0
216300,-0.342228621244431,0
216410,-0.339742720127106,0
216520,-0.34160715341568,0
216630,-0.341399997472763,0
216740,-0.34077849984169,0
216850,-0.342021465301514,0
216960,-0.341192841529846,0
217070,-0.342228621244431,0
217180,-0.34160715341568,0
217290,-0.34160715341568,0
217400,-0.341399997472763,0
217500,-0.341192841529846,0
217610,-0.34243580698967,0
217720,-0.340985685586929,0
217830,-0.34160715341568,0
217940,-0.339742720127106,0
218050,-0.342228621244431,0
218160,-0.340985685586929,0
218270,-0.340985685586929,0
218380,-0.340985685586929,0
218490,-0.342021465301514,0
218600,-0.34160715341568,0
218710,-0.341192841529846,0
218810,-0.341814309358597,0
218920,-0.341399997472763,0
219030,-0.341399997472763,0
219140,-0.340985685586929,0
219250,-0.341192841529846,0
219360,-0.342021465301514,0
219470,-0.34243580698967,0
219580,-0.341192841529846,0
219690,-0.34077849984169,0
219800,-0.341399997472763,0
219910,-0.34160715341568,0
220020,-0.34077849984169,0
220130,-0.341192841529846,0
220230,-0.34077849984169,0
220340,-0.340985685586929,0
220450,-0.341399997472763,0
220560,-0.341814309358597,0
220670,-0.341399997472763,0
220780,-0.340985685586929,0
220890,-0.341399997472763,0
221000,-0.341814309358597,0
221110,-0.341399997472763,0
221220,-0.340985685586929,0
221330,-0.341399997472763,0
221440,-0.341814309358597,0
221540,-0.340364187955856,0
221650,-0.341399997472763,0
221760,-0.341192841529846,0
221870,-0.340985685586929,0
221980,-0.341814309358597,0
222090,-0.341192841529846,0
222200,-0.341192841529846,0
222310,-0.340985685586929,0
222420,-0.340985685586929,0
222530,-0.339949876070023,0
222640,-0.34160715341568,0
222750,-0.342228621244431,0
222860,-0.341192841529846,0
222960,-0.34160715341568,0
223070,-0.34077849984169,0
223180,-0.341814309358597,0
223290,-0.34077849984169,0
223400,-0.342021465301514,0
223510,-0.34160715341568,0
223620,-0.341192841529846,0
223730,-0.340985685586929,0
223840,-0.34160715341568,0
223950,-0.341399997472763,0
224060,-0.34160715341568,0
224170,-0.340985685586929,0
224270,-0.34160715341568,0
224380,-0.342021465301514,0
224490,-0.341814309358597,0
224600,-0.34077849984169,0
224710,-0.339742720127106,0
224820,-0.341192841529846,0
224930,-0.342642962932587,0
225040,-0.341399997472763,0
225150,-0.341814309358597,0
225260,-0.341814309358597,0
225370,-0.342021465301514,0
225480,-0.340157032012939,0
225590,-0.340985685586929,0
225690,-0.342021465301514,0
225800,-0.34077849984169,0
225910,-0.341814309358597,0
226020,-0.342228621244431,0
226130,-0.341814309358597,0
226240,-0.341399997472763,0
226350,-0.34077849984169,0
226460,-0.340364187955856,0
226570,-0.341192841529846,0
226680,-0.34077849984169,0
226790,-0.341814309358597,0
226900,-0.340571343898773,0
227000,-0.34077849984169,0
227110,-0.342021465301514,0
227220,-0.340157032012939,0
227330,-0.342021465301514,0
227440,-0.34160715341568,0
227550,-0.342021465301514,0
227660,-0.342021465301514,0
227770,-0.340364187955856,0
227880,-0.342021465301514,0
227990,-0.341192841529846,0
228100,-0.34243580698967,0
228210,-0.341192841529846,0
228320,-0.34160715341568,0
228420,-0.34160715341568,0
228530,-0.34077849984169,0
228640,-0.341192841529846,0
228750,-0.341399997472763,0
228860,-0.34160715341568,0
228970,-0.341192841529846,0
229080,-0.341814309358597,0
229190,-0.341399997472763,0
229300,-0.341192841529846,0
229410,-0.341192841529846,0
229520,-0.339949876070023,0
229630,-0.341399997472763,0
229730,-0.34160715341568,0
229840,-0.342228621244431,0
229950,-0.340364187955856,0
230060,-0.341192841529846,0
230170,-0.340985685586929,0
230280,-0.340571343898773,0
230390,-0.341814309358597,0
230500,-0.34077849984169,0
230610,-0.341814309358597,0
230720,-0.34160715341568,0
230830,-0.341814309358597,0
230940,-0.341192841529846,0
231050,-0.340364187955856,0
231150,-0.341192841529846,0
231260,-0.341192841529846,0
231370,-0.340571343898773,0
231480,-0.342021465301514,0
231590,-0.342021465301514,0
231700,-0.341192841529846,0
231810,-0.34160715341568,0
231920,-0.340571343898773,0
232030,-0.340157032012939,0
232140,-0.34160715341568,0
232250,-0.342021465301514,0
232360,-0.341399997472763,0
232460,-0.341814309358597,0
232570,-0.340985685586929,0
232680,-0.339949876070023,0
232790,-0.341399997472763,0
232900,-0.340157032012939,0
233010,-0.341399997472763,0
233120,-0.340985685586929,0
233230,-0.341814309358597,0
233340,-0.341399997472763,0
233450,-0.34160715341568,0
233560,-0.34160715341568,0
233670,-0.339949876070023,0
233780,-0.342021465301514,0
233880,-0.341814309358597,0
233990,-0.341192841529846,0
234100,-0.340571343898773,0
234210,-0.340364187955856,0
234320,-0.340571343898773,0
234430,-0.34077849984169,0
234540,-0.34160715341568,0
234650,-0.34243580698967,0
234760,-0.340157032012939,0
234870,-0.340985685586929,0
234980,-0.341814309358597,0
235090,-0.34077849984169,0
235190,-0.342021465301514,0
235300,-0.34160715341568,0
235410,-0.341399997472763,0
235520,-0.341192841529846,0
235630,-0.340985685586929,0
235740,-0.34160715341568,0
235850,-0.341814309358597,0
235960,-0.341814309358597,0
236070,-0.341399997472763,0
236180,-0.341399997472763,0
236290,-0.342642962932587,0
236400,-0.342642962932587,0
236510,-0.340364187955856,0
236610,-0.341399997472763,0
236720,-0.34077849984169,0
236830,-0.340985685586929,0
236940,-0.341399997472763,0
237050,-0.341192841529846,0
237160,-0.34305727481842,0
237270,-0.340985685586929,0
237380,-0.342228621244431,0
237490,-0.342228621244431,0
237600,-0.341399997472763,0
237710,-0.341192841529846,0
237820,-0.342642962932587,0
237920,-0.34160715341568,0
238030,-0.34077849984169,0
238140,-0.34077849984169,0
238250,-0.34077849984169,0
238360,-0.341814309358597,0
238470,-0.341399997472763,0
238580,-0.341192841529846,0
238690,-0.340157032012939,0
238800,-0.341192841529846,0
238910,-0.339949876070023,0
239020,-0.34160715341568,0
239130,-0.34160715341568,0
239240,-0.34160715341568,0
239340,-0.34077849984169,0
239450,-0.34077849984169,0
239560,-0.340571343898773,0
239670,-0.34077849984169,0
239780,-0.34077849984169,0
239890,-0.341399997472763,0
240000,-0.342021465301514,0
240110,-0.342021465301514,0
240220,-0.34160715341568,0
240330,-0.341814309358597,0
240440,-0.341399997472763,0
240550,-0.340571343898773,0
240650,-0.34160715341568,0
240760,-0.341814309358597,0
240870,-0.341814309358597,0
240980,-0.341399997472763,0
241090,-0.341399997472763,0
241200,-0.340985685586929,0
241310,-0.341814309358597,0
241420,-0.34077849984169,0
241530,-0.34243580698967,0
241640,-0.34243580698967,0
241750,-0.34243580698967,0
241860,-0.34160715341568,0
241970,-0.34160715341568,0
242070,-0.34160715341568,0
242180,-0.342642962932587,0
242290,-0.340985685586929,0
242400,-0.34160715341568,0
242510,-0.34160715341568,0
242620,-0.341192841529846,0
242730,-0.341814309358597,0
242840,-0.34077849984169,0
242950,-0.340364187955856,0
243060,-0.341399997472763,0
243170,-0.341192841529846,0
243280,-0.340985685586929,0
243380,-0.341192841529846,0
243490,-0.342228621244431,0
243600,-0.34077849984169,0
243710,-0.34160715341568,0
243820,-0.34160715341568,0
243930,-0.342228621244431,0
244040,-0.342021465301514,0
244150,-0.341192841529846,0
244260,-0.340571343898773,0
244370,-0.340364187955856,0
244480,-0.342228621244431,0
244590,-0.341192841529846,0
244700,-0.342642962932587,0
244800,-0.341399997472763,0
244910,-0.340571343898773,0
245020,-0.341192841529846,0
245130,-0.341192841529846,0
245240,-0.340364187955856,0
245350,-0.341814309358597,0
245460,-0.341814309358597,0
245570,-0.340985685586929,0
245680,-0.342228621244431,0
245790,-0.34077849984169,0
245900,-0.34160715341568,0
246010,-0.34243580698967,0
246110,-0.341814309358597,0
246220,-0.341814309358597,0
246330,-0.340985685586929,0
246440,-0.341814309358597,0
246550,-0.34077849984169,0
246660,-0.341399997472763,0
246770,-0.341814309358597,0
246880,-0.341399997472763,0
246990,-0.34160715341568,0
247100,-0.34243580698967,0
247210,-0.342021465301514,0
247320,-0.340157032012939,0
247430,-0.34160715341568,0
247530,-0.34077849984169,0
247640,-0.34243580698967,0
247750,-0.34160715341568,0
247860,-0.34077849984169,0
247970,-0.34160715341568,0
248080,-0.341399997472763,0
248190,-0.340571343898773,0
248300,-0.341192841529846,0
248410,-0.341399997472763,0
248520,-0.341814309358597,0
248630,-0.342021465301514,0
248740,-0.341814309358597,0
248840,-0.34077849984169,0
248950,-0.340571343898773,0
249060,-0.340571343898773,0
249170,-0.341192841529846,0
249280,-0.341192841529846,0
249390,-0.341814309358597,0
249500,-0.34077849984169,0
249610,-0.34243580698967,0
249720,-0.341814309358597,0
249830,-0.340985685586929,0
249940,-0.34160715341568,0
250050,-0.341814309358597,0
250160,-0.340364187955856,0
250260,-0.341192841529846,0
250370,-0.342228621244431,0
250480,-0.34243580698967,0
250590,-0.339742720127106,0
250700,-0.34160715341568,0
250810,-0.341192841529846,0
250920,-0.340571343898773,0
251030,-0.341192841529846,0
251140,-0.34077849984169,0
251250,-0.34077849984169,0
251360,-0.34160715341568,0
251470,-0.341192841529846,0
251570,-0.343471586704254,0
251680,-0.341192841529846,0
251790,-0.340364187955856,0
251900,-0.341399997472763,0
252010,-0.341192841529846,0
252120,-0.342021465301514,0
252230,-0.341399997472763,0
252340,-0.34077849984169,0
252450,-0.34243580698967,0
252560,-0.340985685586929,0
252670,-0.339949876070023,0
252780,-0.339949876070023,0
252890,-0.342228621244431,0
252990,-0.34160715341568,0
253100,-0.341399997472763,0
253210,-0.342228621244431,0
253320,-0.340985685586929,0
253430,-0.34160715341568,0
253540,-0.340985685586929,0
253650,-0.341192841529846,0
253760,-0.342642962932587,0
253870,-0.342228621244431,0
253980,-0.341399997472763,0
254090,-0.340985685586929,0
254200,-0.341814309358597,0
254300,-0.340985685586929,0
254410,-0.340571343898773,0
254520,-0.341192841529846,0
254630,-0.340985685586929,0
254740,-0.340985685586929,0
254850,-0.341399997472763,0
254960,-0.342021465301514,0
255070,-0.341192841529846,0
255180,-0.34160715341568,0
255290,-0.341192841529846,0
255400,-0.34077849984169,0
255510,-0.34160715341568,0
255620,-0.34077849984169,0
255720,-0.340985685586929,0
255830,-0.34160715341568,0
255940,-0.341399997472763,0
256050,-0.34077849984169,0
256160,-0.34243580698967,0
256270,-0.34160715341568,0
256380,-0.341399997472763,0
256490,-0.34243580698967,0
256600,-0.341192841529846,0
256710,-0.343264430761337,0
256820,-0.341814309358597,0
256930,-0.34077849984169,0
257030,-0.340985685586929,0
257140,-0.340985685586929,0
257250,-0.341814309358597,0
257360,-0.340985685586929,0
257470,-0.341814309358597,0
257580,-0.341399997472763,0
257690,-0.342021465301514,0
257800,-0.342642962932587,0
257910,-0.341399997472763,0
258020,-0.34243580698967,0
258130,-0.342228621244431,0
258240,-0.34160715341568,0
258350,-0.340985685586929,0
258450,-0.339742720127106,0
258560,-0.341192841529846,0
258670,-0.340985685586929,0
258780,-0.34243580698967,0
258890,-0.339949876070023,0
259000,-0.340157032012939,0
259110,-0.341399997472763,0
259220,-0.342021465301514,0
259330,-0.341814309358597,0
259440,-0.341399997472763,0
259550,-0.34243580698967,0
259660,-0.342228621244431,0
259760,-0.341192841529846,0
259870,-0.341814309358597,0
259980,-0.342021465301514,0
260090,-0.342021465301514,0
260200,-0.340985685586929,0
260310,-0.34160715341568,0
260420,-0.340985685586929,0
260530,-0.34160715341568,0
260640,-0.34077849984169,0
260750,-0.34243580698967,0
260860,-0.342642962932587,0
260970,-0.341399997472763,0
261080,-0.340364187955856,0
261180,-0.34077849984169,0
261290,-0.341399997472763,0
261400,-0.34160715341568,0
261510,-0.341814309358597,0
261620,-0.340157032012939,0
261730,-0.34160715341568,0
261840,-0.341399997472763,0
261950,-0.341192841529846,0
262060,-0.34243580698967,0
262170,-0.341399997472763,0
262280,-0.340985685586929,0
262390,-0.340985685586929,0
262490,-0.341814309358597,0
262600,-0.341399997472763,0
262710,-0.341192841529846,0
262820,-0.340985685586929,0
262930,-0.34160715341568,0
263040,-0.341814309358597,0
263150,-0.340157032012939,0
263260,-0.341399997472763,0
263370,-0.34243580698967,0
263480,-0.341192841529846,0
263590,-0.341399997472763,0
263700,-0.341814309358597,0
263810,-0.341399997472763,0
263910,-0.341399997472763,0
264020,-0.341192841529846,0
264130,-0.341399997472763,0
264240,-0.340985685586929,0
264350,-0.340985685586929,0
264460,-0.342228621244431,0
264570,-0.34077849984169,0
264680,-0.340157032012939,0
264790,-0.34160715341568,0
264900,-0.340985685586929,0
265010,-0.341399997472763,0
265120,-0.342021465301514,0
265220,-0.341399997472763,0
265330,-0.341399997472763,0
265440,-0.34077849984169,0
265550,-0.34160715341568,0
265660,-0.341399997472763,0
265770,-0.340985685586929,0
265880,-0.341814309358597,0
265990,-0.342642962932587,0
266100,-0.341192841529846,0
266210,-0.342021465301514,0
266320,-0.34077849984169,0
266430,-0.341814309358597,0
266540,-0.34160715341568,0
266640,-0.342850118875504,0
266750,-0.340157032012939,0
266860,-0.342642962932587,0
266970,-0.341399997472763,0
267080,-0.342228621244431,0
267190,-0.341814309358597,0
267300,-0.339742720127106,0
267410,-0.341814309358597,0
267520,-0.342228621244431,0
267630,-0.340985685586929,0
267740,-0.34160715341568,0
267850,-0.34160715341568,0
267950,-0.342850118875504,0
268060,-0.34077849984169,0
268170,-0.340571343898773,0
268280,-0.34243580698967,0
268390,-0.341399997472763,0
268500,-0.341192841529846,0
268610,-0.342228621244431,0
268720,-0.341399997472763,0
268830,-0.340364187955856,0
268940,-0.340985685586929,0
269050,-0.340985685586929,0
269160,-0.340985685586929,0
269270,-0.341192841529846,0
269370,-0.342021465301514,0
269480,-0.341814309358597,0
269590,-0.341399997472763,0
269700,-0.340985685586929,0
269810,-0.341399997472763,0
269920,-0.341814309358597,0
270030,-0.341814309358597,0
270140,-0.341399997472763,0
270250,-0.341399997472763,0
270360,-0.340985685586929,0
270470,-0.342228621244431,0
270580,-0.343471586704254,0
270680,-0.341814309358597,0
270790,-0.341399997472763,0
270900,-0.341192841529846,0
271010,-0.340985685586929,0
271120,-0.34160715341568,0
271230,-0.34077849984169,0
271340,-0.34243580698967,0
271450,-0.340985685586929,0
271560,-0.341192841529846,0
271670,-0.342642962932587,0
271780,-0.341192841529846,0
271890,-0.341814309358597,0
272000,-0.34077849984169,0
272100,-0.34243580698967,0
272210,-0.341814309358597,0
272320,-0.340571343898773,0
272430,-0.341399997472763,0
272540,-0.342021465301514,0
272650,-0.340364187955856,0
272760,-0.341399997472763,0
272870,-0.340364187955856,0
272980,-0.342021465301514,0
273090,-0.341399997472763,0
273200,-0.341399997472763,0
273310,-0.34160715341568,0
273410,-0.340985685586929,0
273520,-0.341192841529846,0
273630,-0.340985685586929,0
273740,-0.341814309358597,0
273850,-0.34160715341568,0
273960,-0.340985685586929,0
274070,-0.341814309358597,0
274180,-0.341192841529846,0
274290,-0.34160715341568,0
274400,-0.340571343898773,0
274510,-0.341192841529846,0
274620,-0.342021465301514,0
274730,-0.34160715341568,0
274830,-0.341399997472763,0
274940,-0.341814309358597,0
275050,-0.340364187955856,0
275160,-0.341399997472763,0
275270,-0.340985685586929,0
275380,-0.341192841529846,0
275490,-0.340985685586929,0
275600,-0.342228621244431,0
275710,-0.33932837843895,0
275820,-0.341192841529846,0
275930,-0.341814309358597,0
276040,-0.34243580698967,0
276140,-0.341192841529846,0
276250,-0.341399997472763,0
276360,-0.340157032012939,0
276470,-0.34160715341568,0
276580,-0.340985685586929,0
276690,-0.340364187955856,0
276800,-0.340985685586929,0
276910,-0.341814309358597,0
277020,-0.341814309358597,0
277130,-0.34243580698967,0
277240,-0.34160715341568,0
277350,-0.341399997472763,0
277460,-0.342228621244431,0
277560,-0.34160715341568,0
277670,-0.341399997472763,0
277780,-0.342228621244431,0
277890,-0.340364187955856,0
278000,-0.341192841529846,0
278110,-0.341814309358597,0
278220,-0.340364187955856,0
278330,-0.34243580698967,0
278440,-0.340364187955856,0
278550,-0.341399997472763,0
278660,-0.340985685586929,0
278770,-0.341192841529846,0
278880,-0.340985685586929,0
278980,-0.340571343898773,0
279090,-0.341814309358597,0
279200,-0.34160715341568,0
279310,-0.342228621244431,0
279420,-0.340364187955856,0
279530,-0.341399997472763,0
279640,-0.340985685586929,0
279750,-0.342850118875504,0
279860,-0.342228621244431,0
279970,-0.342021465301514,0
280080,-0.342642962932587,0
280190,-0.342021465301514,0
280290,-0.340157032012939,0
280400,-0.34243580698967,0
280510,-0.341399997472763,0
280620,-0.340985685586929,0
280730,-0.341399997472763,0
280840,-0.342021465301514,0
280950,-0.339949876070023,0
281060,-0.340985685586929,0
281170,-0.34077849984169,0
281280,-0.340571343898773,0
281390,-0.34160715341568,0
281500,-0.341814309358597,0
281610,-0.34160715341568,0
281710,-0.341192841529846,0
281820,-0.34243580698967,0
281930,-0.342021465301514,0
282040,-0.340571343898773,0
282150,-0.34160715341568,0
282260,-0.340364187955856,0
282370,-0.341399997472763,0
282480,-0.340985685586929,0
282590,-0.342021465301514,0
282700,-0.34160715341568,0
282810,-0.340985685586929,0
282920,-0.342850118875504,0
283020,-0.342021465301514,0
283130,-0.34160715341568,0
283240,-0.340571343898773,0
283350,-0.34160715341568,0
283460,-0.342642962932587,0
283570,-0.341814309358597,0
283680,-0.341814309358597,0
283790,-0.34077849984169,0
283900,-0.34160715341568,0
284010,-0.341399997472763,0
284120,-0.341192841529846,0
284230,-0.34077849984169,0
284340,-0.341399997472763,0
284440,-0.340985685586929,0
284550,-0.342021465301514,0
284660,-0.34160715341568,0
284770,-0.342021465301514,0
284880,-0.341399997472763,0
284990,-0.34077849984169,0
285100,-0.340985685586929,0
285210,-0.34160715341568,0
285320,-0.34243580698967,0
285430,-0.341192841529846,0
285540,-0.342021465301514,0
285650,-0.34160715341568,0
285750,-0.341399997472763,0
285860,-0.340985685586929,0
285970,-0.339949876070023,0
286080,-0.341192841529846,0
286190,-0.342228621244431,0
286300,-0.342228621244431,0
286410,-0.341399997472763,0
286520,-0.341814309358597,0
286630,-0.34160715341568,0
286740,-0.34077849984169,0
286850,-0.34160715341568,0
286960,-0.340985685586929,0
287070,-0.34077849984169,0
287170,-0.34160715341568,0
287280,-0.342021465301514,0
287390,-0.340985685586929,0
287500,-0.340571343898773,0
287610,-0.341192841529846,0
287720,-0.34077849984169,0
287830,-0.341399997472763,0
287940,-0.341399997472763,0
288050,-0.342021465301514,0
288160,-0.341814309358597,0
288270,-0.341192841529846,0
288380,-0.341192841529846,0
288480,-0.342021465301514,0
288590,-0.340985685586929,0
288700,-0.340985685586929,0
288810,-0.342021465301514,0
288920,-0.341399997472763,0
289030,-0.341192841529846,0
289140,-0.34160715341568,0
289250,-0.341192841529846,0
289360,-0.341192841529846,0
289470,-0.340157032012939,0
289580,-0.342021465301514,0
289690,-0.342228621244431,0
289800,-0.341192841529846,0
289900,-0.341399997472763,0
290010,-0.341814309358597,0
290120,-0.340985685586929,0
290230,-0.342228621244431,0
290340,-0.341192841529846,0
290450,-0.340985685586929,0
290560,-0.341399997472763,0
290670,-0.341814309358597,0
290780,-0.341192841529846,0
290890,-0.34243580698967,0
291000,-0.341814309358597,0
291110,-0.341192841529846,0
291210,-0.342228621244431,0
291320,-0.34077849984169,0
291430,-0.341192841529846,0
291540,-0.341399997472763,0
291650,-0.340985685586929,0
291760,-0.34077849984169,0
291870,-0.341192841529846,0
291980,-0.34160715341568,0
292090,-0.340364187955856,0
292200,-0.340571343898773,0
292310,-0.341814309358597,0
292420,-0.341814309358597,0
292530,-0.340985685586929,0
292630,-0.342021465301514,0
292740,-0.341399997472763,0
292850,-0.341399997472763,0
292960,-0.341399997472763,0
293070,-0.341192841529846,0
293180,-0.341399997472763,0
293290,-0.34160715341568,0
293400,-0.342021465301514,0
293510,-0.341399997472763,0
293620,-0.341399997472763,0
293730,-0.34160715341568,0
293840,-0.340985685586929,0
293940,-0.34160715341568,0
294050,-0.341192841529846,0
294160,-0.341192841529846,0
294270,-0.34160715341568,0
294380,-0.341814309358597,0
294490,-0.34077849984169,0
294600,-0.341192841529846,0
294710,-0.341399997472763,0
294820,-0.340157032012939,0
294930,-0.341814309358597,0
295040,-0.341192841529846,0
295150,-0.340571343898773,0
295260,-0.34077849984169,0
295360,-0.34160715341568,0
295470,-0.342021465301514,0
295580,-0.341399997472763,0
295690,-0.340364187955856,0
295800,-0.341399997472763,0
295910,-0.340985685586929,0
296020,-0.341399997472763,0
296130,-0.341399997472763,0
296240,-0.34160715341568,0
296350,-0.34160715341568,0
296460,-0.340985685586929,0
296570,-0.342021465301514,0
296670,-0.340364187955856,0
296780,-0.34160715341568,0
296890,-0.343471586704254,0
297000,-0.341814309358597,0
297110,-0.341192841529846,0
297220,-0.342021465301514,0
297330,-0.341192841529846,0
297440,-0.341192841529846,0
297550,-0.342021465301514,0
297660,-0.340571343898773,0
297770,-0.341399997472763,0
297880,-0.343471586704254,0
297990,-0.34243580698967,0
298090,-0.341192841529846,0
298200,-0.34160715341568,0
298310,-0.340571343898773,0
298420,-0.342021465301514,0
298530,-0.34160715341568,0
298640,-0.34077849984169,0
298750,-0.34160715341568,0
298860,-0.342021465301514,0
298970,-0.34077849984169,0
299080,-0.341192841529846,0
299190,-0.340571343898773,0
299300,-0.340985685586929,0
299400,-0.341192841529846,0
299510,-0.342642962932587,0
299620,-0.340985685586929,0
299730,-0.34077849984169,0
299840,-0.34160715341568,0
299950,-0.340571343898773,0
300060,-0.340985685586929,0
300170,-0.341192841529846,0
300280,-0.34077849984169,0
300390,-0.342642962932587,0
300500,-0.34243580698967,0
300610,-0.341814309358597,0
300720,-0.340571343898773,0
300820,-0.34077849984169,0
300930,-0.34160715341568,0
301040,-0.339742720127106,0
301150,-0.341399997472763,0
301260,-0.34077849984169,0
301370,-0.341814309358597,0
301480,-0.34077849984169,0
301590,-0.34243580698967,0
301700,-0.34077849984169,0
301810,-0.34160715341568,0
301920,-0.342850118875504,0
302030,-0.340364187955856,0
302130,-0.342021465301514,0
302240,-0.342021465301514,0
302350,-0.342021465301514,0
302460,-0.342642962932587,0
302570,-0.342021465301514,0
302680,-0.341399997472763,0
302790,-0.342642962932587,0
302900,-0.34243580698967,0
303010,-0.341814309358597,0
303120,-0.340985685586929,0
303230,-0.341814309358597,0
303340,-0.34243580698967,0
303450,-0.34077849984169,0
303550,-0.342021465301514,0
303660,-0.34160715341568,0
303770,-0.34077849984169,0
303880,-0.34160715341568,0
303990,-0.341399997472763,0
304100,-0.341192841529846,0
304210,-0.34160715341568,0
304320,-0.342228621244431,0
304430,-0.34160715341568,0
304540,-0.341399997472763,0
304650,-0.340985685586929,0
304760,-0.34243580698967,0
304860,-0.341399997472763,0
304970,-0.34160715341568,0
305080,-0.341814309358597,0
305190,-0.341192841529846,0
305300,-0.340985685586929,0
305410,-0.341399997472763,0
305520,-0.34160715341568,0
305630,-0.342228621244431,0
305740,-0.342228621244431,0
305850,-0.34243580698967,0
305960,-0.341192841529846,0
306070,-0.341814309358597,0
306180,-0.34077849984169,0
306280,-0.340985685586929,0
306390,-0.341814309358597,0
306500,-0.341814309358597,0
306610,-0.342021465301514,0
306720,-0.342021465301514,0
306830,-0.341192841529846,0
306940,-0.34077849984169,0
307050,-0.342021465301514,0
307160,-0.340571343898773,0
307270,-0.341399997472763,0
307380,-0.341192841529846,0
307490,-0.34243580698967,0
307590,-0.341814309358597,0
307700,-0.340364187955856,0
307810,-0.34077849984169,0
307920,-0.341192841529846,0
308030,-0.34160715341568,0
308140,-0.342021465301514,0
308250,-0.341814309358597,0
308360,-0.34160715341568,0
308470,-0.34305727481842,0
308580,-0.342228621244431,0
308690,-0.34160715341568,0
308800,-0.341192841529846,0
308910,-0.341399997472763,0
309010,-0.34160715341568,0
309120,-0.341814309358597,0
309230,-0.342228621244431,0
309340,-0.34077849984169,0
309450,-0.341399997472763,0
309560,-0.341192841529846,0
309670,-0.34160715341568,0
309780,-0.34077849984169,0
309890,-0.340985685586929,0
310000,-0.34243580698967,0
310110,-0.341192841529846,0
310220,-0.340985685586929,0
310320,-0.342228621244431,0
310430,-0.342021465301514,0
310540,-0.341192841529846,0
310650,-0.341814309358597,0
310760,-0.342228621244431,0
310870,-0.340985685586929,0
310980,-0.341192841529846,0
311090,-0.342021465301514,0
311200,-0.341192841529846,0
311310,-0.341399997472763,0
311420,-0.340985685586929,0
311530,-0.34160715341568,0
311640,-0.341192841529846,0
311740,-0.34077849984169,0
311850,-0.341814309358597,0
311960,-0.34077849984169,0
312070,-0.342642962932587,0
312180,-0.34160715341568,0
312290,-0.341814309358597,0
312400,-0.34160715341568,0
312510,-0.341192841529846,0
312620,-0.34077849984169,0
312730,-0.341192841529846,0
312840,-0.342021465301514,0
312950,-0.340985685586929,0
313050,-0.342021465301514,0
313160,-0.34243580698967,0
313270,-0.341192841529846,0
313380,-0.34243580698967,0
313490,-0.341192841529846,0
313600,-0.341192841529846,0
313710,-0.340985685586929,0
313820,-0.34243580698967,0
313930,-0.342228621244431,0
314040,-0.34160715341568,0
314150,-0.340571343898773,0
314260,-0.34243580698967,0
314370,-0.341814309358597,0
314470,-0.34160715341568,0
314580,-0.34160715341568,0
314690,-0.340157032012939,0
314800,-0.341192841529846,0
314910,-0.34243580698967,0
315020,-0.342021465301514,0
315130,-0.342021465301514,0
315240,-0.341814309358597,0
315350,-0.341192841529846,0
315460,-0.341399997472763,0
315570,-0.342021465301514,0
315680,-0.34160715341568,0
315780,-0.34160715341568,0
315890,-0.34243580698967,0
316000,-0.341399997472763,0
316110,-0.34160715341568,0
316220,-0.341399997472763,0
316330,-0.342021465301514,0
316440,-0.342021465301514,0
316550,-0.340571343898773,0
316660,-0.342021465301514,0
316770,-0.34160715341568,0
316880,-0.340985685586929,0
316990,-0.342021465301514,0
317100,-0.341192841529846,0
317200,-0.341399997472763,0
317310,-0.34077849984169,0
317420,-0.341399997472763,0
317530,-0.342021465301514,0
317640,-0.340571343898773,0
317750,-0.340985685586929,0
317860,-0.342850118875504,0
317970,-0.341192841529846,0
318080,-0.340571343898773,0
318190,-0.342021465301514,0
318300,-0.340985685586929,0
318410,-0.34243580698967,0
318510,-0.340985685586929,0
318620,-0.339535564184189,0
318730,-0.341814309358597,0
318840,-0.341192841529846,0
318950,-0.341192841529846,0
319060,-0.341192841529846,0
319170,-0.341399997472763,0
319280,-0.34243580698967,0
319390,-0.342021465301514,0
319500,-0.342021465301514,0
319610,-0.34160715341568,0
319720,-0.341814309358597,0
319830,-0.342021465301514,0
319930,-0.342642962932587,0
320040,-0.34243580698967,0
320150,-0.34243580698967,0
320260,-0.341814309358597,0
320370,-0.34077849984169,0
320480,-0.340364187955856,0
320590,-0.340157032012939,0
320700,-0.340985685586929,0
320810,-0.341399997472763,0
320920,-0.34160715341568,0
321030,-0.342021465301514,0
321140,-0.339742720127106,0
321240,-0.34077849984169,0
321350,-0.341192841529846,0
321460,-0.34243580698967,0
321570,-0.341399997472763,0
321680,-0.342021465301514,0
321790,-0.343264430761337,0
321900,-0.342850118875504,0
322010,-0.341814309358597,0
322120,-0.341399997472763,0
322230,-0.34160715341568,0
322340,-0.340157032012939,0
322450,-0.342021465301514,0
322560,-0.34160715341568,0
322660,-0.34160715341568,0
322770,-0.34077849984169,0
322880,-0.340985685586929,0
322990,-0.341399997472763,0
323100,-0.340985685586929,0
323210,-0.341192841529846,0
323320,-0.341814309358597,0
323430,-0.340157032012939,0
323540,-0.341814309358597,0
323650,-0.34077849984169,0
323760,-0.341814309358597,0
323870,-0.34160715341568,0
323970,-0.341399997472763,0
324080,-0.342642962932587,0
324190,-0.340985685586929,0
324300,-0.342228621244431,0
324410,-0.341399997472763,0
324520,-0.341814309358597,0
324630,-0.34160715341568,0
324740,-0.340985685586929,0
324850,-0.34243580698967,0
324960,-0.34077849984169,0
325070,-0.34160715341568,0
325180,-0.341192841529846,0
325290,-0.342021465301514,0
325390,-0.342021465301514,0
325500,-0.342021465301514,0
325610,-0.341814309358597,0
325720,-0.34077849984169,0
325830,-0.341399997472763,0
325940,-0.341192841529846,0
326050,-0.34305727481842,0
326160,-0.34243580698967,0
326270,-0.34160715341568,0
326380,-0.34160715341568,0
326490,-0.341399997472763,0
326600,-0.34077849984169,0
326700,-0.34243580698967,0
326810,-0.340985685586929,0
326920,-0.341399997472763,0
327030,-0.340157032012939,0
327140,-0.342642962932587,0
327250,-0.34077849984169,0
327360,-0.340985685586929,0
327470,-0.34160715341568,0
327580,-0.34160715341568,0
327690,-0.340364187955856,0
327800,-0.341192841529846,0
327910,-0.34160715341568,0
328020,-0.341192841529846,0
328120,-0.340571343898773,0
328230,-0.342228621244431,0
328340,-0.341399997472763,0
328450,-0.34305727481842,0
328560,-0.342228621244431,0
328670,-0.34077849984169,0
328780,-0.341814309358597,0
328890,-0.341192841529846,0
329000,-0.34160715341568,0
329110,-0.34160715341568,0
329220,-0.34077849984169,0
329330,-0.340985685586929,0
329430,-0.341399997472763,0
329540,-0.340985685586929,0
329650,-0.340985685586929,0
329760,-0.341192841529846,0
329870,-0.340985685586929,0
329980,-0.34160715341568,0
330090,-0.340364187955856,0
330200,-0.340571343898773,0
330310,-0.341399997472763,0
330420,-0.34243580698967,0
330530,-0.34160715341568,0
330640,-0.342228621244431,0
330750,-0.340571343898773,0
330850,-0.340985685586929,0
330960,-0.340157032012939,0
331070,-0.341192841529846,0
331180,-0.340985685586929,0
331290,-0.341192841529846,0
331400,-0.340157032012939,0
331510,-0.340571343898773,0
331620,-0.340571343898773,0
331730,-0.34160715341568,0
331840,-0.341192841529846,0
331950,-0.341814309358597,0
332060,-0.342228621244431,0
332160,-0.340985685586929,0
332270,-0.341192841529846,0
332380,-0.341814309358597,0
332490,-0.340985685586929,0
332600,-0.341192841529846,0
332710,-0.340985685586929,0
332820,-0.342228621244431,0
332930,-0.341192841529846,0
333040,-0.34243580698967,0
333150,-0.34160715341568,0
333260,-0.341814309358597,0
333370,-0.341814309358597,0
333480,-0.340571343898773,0
333580,-0.341399997472763,0
333690,-0.34077849984169,0
333800,-0.341399997472763,0
333910,-0.341192841529846,0
334020,-0.34160715341568,0
334130,-0.34077849984169,0
334240,-0.34160715341568,0
334350,-0.341814309358597,0
334460,-0.341814309358597,0
334570,-0.340985685586929,0
334680,-0.34160715341568,0
334790,-0.342021465301514,0
334890,-0.34243580698967,0
335000,-0.341192841529846,0
335110,-0.34077849984169,0
335220,-0.34160715341568,0
335330,-0.341399997472763,0
335440,-0.341399997472763,0
335550,-0.342021465301514,0
335660,-0.341192841529846,0
335770,-0.341399997472763,0
335880,-0.34160715341568,0
335990,-0.340571343898773,0
336100,-0.341814309358597,0
336210,-0.340571343898773,0
336310,-0.341192841529846,0
336420,-0.341399997472763,0
336530,-0.340985685586929,0
336640,-0.34160715341568,0
336750,-0.34243580698967,0
336860,-0.34160715341568,0
336970,-0.340157032012939,0
337080,-0.34077849984169,0
337190,-0.341814309358597,0
337300,-0.341399997472763,0
337410,-0.340571343898773,0
337520,-0.342228621244431,0
337620,-0.34160715341568,0
337730,-0.342021465301514,0
337840,-0.341399997472763,0
337950,-0.34160715341568,0
338060,-0.341814309358597,0
338170,-0.34160715341568,0
338280,-0.340985685586929,0
338390,-0.342021465301514,0
338500,-0.34243580698967,0
338610,-0.342850118875504,0
338720,-0.340571343898773,0
338830,-0.34077849984169,0
338940,-0.342021465301514,0
339040,-0.342850118875504,0
339150,-0.341192841529846,0
339260,-0.341814309358597,0
339370,-0.342642962932587,0
339480,-0.340985685586929,0
339590,-0.34160715341568,0
339700,-0.34077849984169,0
339810,-0.342228621244431,0
339920,-0.34160715341568,0
340030,-0.342021465301514,0
340140,-0.34077849984169,0
340250,-0.341399997472763,0
340350,-0.342850118875504,0
340460,-0.341399997472763,0
340570,-0.34160715341568,0
340680,-0.341814309358597,0
340790,-0.34160715341568,0
340900,-0.341399997472763,0
341010,-0.340571343898773,0
341120,-0.34243580698967,0
341230,-0.341814309358597,0
341340,-0.342228621244431,0
341450,-0.34077849984169,0
341560,-0.342021465301514,0
341670,-0.341192841529846,0
341770,-0.342228621244431,0
341880,-0.34243580698967,0
341990,-0.340985685586929,0
342100,-0.342228621244431,0
342210,-0.34160715341568,0
342320,-0.342228621244431,0
342430,-0.34160715341568,0
342540,-0.340571343898773,0
342650,-0.341399997472763,0
342760,-0.34160715341568,0
342870,-0.341814309358597,0
342980,-0.340157032012939,0
343080,-0.341814309358597,0
343190,-0.341192841529846,0
343300,-0.341192841529846,0
343410,-0.34077849984169,0
343520,-0.341399997472763,0
343630,-0.34077849984169,0
343740,-0.342021465301514,0
343850,-0.341399997472763,0
343960,-0.342228621244431,0
344070,-0.34243580698967,0
344180,-0.341192841529846,0
344290,-0.341192841529846,0
344400,-0.341399997472763,0
344500,-0.340571343898773,0
344610,-0.342642962932587,0
344720,-0.34160715341568,0
344830,-0.342228621244431,0
344940,-0.340157032012939,0
345050,-0.341814309358597,0
345160,-0.341399997472763,0
345270,-0.342228621244431,0
345380,-0.34077849984169,0
345490,-0.341192841529846,0
345600,-0.340985685586929,0
345710,-0.341399997472763,0
345810,-0.341192841529846,0
345920,-0.34160715341568,0
346030,-0.342642962932587,0
346140,-0.34243580698967,0
346250,-0.341192841529846,0
346360,-0.339535564184189,0
346470,-0.340364187955856,0
346580,-0.341399997472763,0
346690,-0.34077849984169,0
346800,-0.341192841529846,0
346910,-0.34305727481842,0
347020,-0.341814309358597,0
347130,-0.342021465301514,0
347230,-0.34160715341568,0
347340,-0.34160715341568,0
347450,-0.34160715341568,0
347560,-0.340985685586929,0
347670,-0.342228621244431,0
347780,-0.342021465301514,0
347890,-0.340157032012939,0
348000,-0.34243580698967,0
348110,-0.34243580698967,0
348220,-0.342642962932587,0
348330,-0.34160715341568,0
348440,-0.340985685586929,0
348540,-0.340985685586929,0
348650,-0.340571343898773,0
348760,-0.341399997472763,0
348870,-0.341192841529846,0
348980,-0.341814309358597,0
349090,-0.342850118875504,0
349200,-0.341192841529846,0
349310,-0.342021465301514,0
349420,-0.341192841529846,0
349530,-0.341814309358597,0
349640,-0.341814309358597,0
349750,-0.341814309358597,0
349860,-0.342021465301514,0
349960,-0.34243580698967,0
350070,-0.34243580698967,0
350180,-0.34160715341568,0
350290,-0.340985685586929,0
350400,-0.342021465301514,0
350510,-0.341399997472763,0
350620,-0.342228621244431,0
350730,-0.34160715341568,0
350840,-0.341192841529846,0
350950,-0.341814309358597,0
351060,-0.34160715341568,0
351170,-0.340364187955856,0
351270,-0.342021465301514,0
351380,-0.342228621244431,0
351490,-0.34243580698967,0
351600,-0.341192841529846,0
351710,-0.34077849984169,0
351820,-0.34160715341568,0
351930,-0.340571343898773,0
352040,-0.341192841529846,0
352150,-0.341192841529846,0
352260,-0.34160715341568,0
352370,-0.341814309358597,0
352480,-0.342228621244431,0
352590,-0.341399997472763,0
352690,-0.342228621244431,0
352800,-0.342642962932587,0
352910,-0.34077849984169,0
353020,-0.342021465301514,0
353130,-0.341814309358597,0
353240,-0.341814309358597,0
353350,-0.34077849984169,0
353460,-0.342850118875504,0
353570,-0.341814309358597,0
353680,-0.34077849984169,0
353790,-0.341192841529846,0
353900,-0.341814309358597,0
354000,-0.340571343898773,0
354110,-0.34160715341568,0
354220,-0.342228621244431,0
354330,-0.342642962932587,0
354440,-0.340985685586929,0
354550,-0.34160715341568,0
354660,-0.340985685586929,0
354770,-0.341192841529846,0
354880,-0.341399997472763,0
354990,-0.341192841529846,0
355100,-0.341192841529846,0
355210,-0.342228621244431,0
355320,-0.341399997472763,0
355420,-0.34160715341568,0
355530,-0.341399997472763,0
355640,-0.341192841529846,0
355750,-0.341399997472763,0
355860,-0.341192841529846,0
355970,-0.34160715341568,0
356080,-0.341814309358597,0
356190,-0.340571343898773,0
356300,-0.341814309358597,0
356410,-0.339949876070023,0
356520,-0.341399997472763,0
356630,-0.342021465301514,0
356740,-0.34243580698967,0
356840,-0.34160715341568,0
356950,-0.340571343898773,0
357060,-0.341814309358597,0
357170,-0.340364187955856,0
357280,-0.34160715341568,0
357390,-0.340985685586929,0
357500,-0.340985685586929,0
357610,-0.34077849984169,0
357720,-0.34160715341568,0
357830,-0.342228621244431,0
357940,-0.341399997472763,0
358050,-0.342021465301514,0
358150,-0.342228621244431,0
358260,-0.340985685586929,0
358370,-0.34160715341568,0
358480,-0.342021465301514,0
358590,-0.342228621244431,0
358700,-0.340364187955856,0
358810,-0.341192841529846,0
358920,-0.341814309358597,0
359030,-0.341814309358597,0
359140,-0.34243580698967,0
359250,-0.34160715341568,0
359360,-0.340985685586929,0
359470,-0.341192841529846,0
359570,-0.34160715341568,0
359680,-0.34160715341568,0
359790,-0.341814309358597,0
359900,-0.34160715341568,0
360010,-0.341192841529846,0
360120,-0.34243580698967,0
360230,-0.342642962932587,0
360340,-0.340571343898773,0
360450,-0.340571343898773,0
360560,-0.34305727481842,0
360670,-0.342228621244431,0
360780,-0.34243580698967,0
360880,-0.341814309358597,0
360990,-0.341399997472763,0
361100,-0.34243580698967,0
361210,-0.34160715341568,0
361320,-0.341399997472763,0
361430,-0.342021465301514,0
361540,-0.341814309358597,0
361650,-0.342228621244431,0
361760,-0.341399997472763,0
361870,-0.341814309358597,0
361980,-0.34160715341568,0
362090,-0.341192841529846,0
362200,-0.341399997472763,0
362300,-0.340364187955856,0
362410,-0.340985685586929,0
362520,-0.342228621244431,0
362630,-0.340571343898773,0
362740,-0.341814309358597,0
362850,-0.34160715341568,0
362960,-0.342642962932587,0
363070,-0.342228621244431,0
363180,-0.341192841529846,0
363290,-0.342021465301514,0
363400,-0.341814309358597,0
363510,-0.34077849984169,0
363610,-0.34243580698967,0
363720,-0.342021465301514,0
363830,-0.339742720127106,0
363940,-0.341399997472763,0
364050,-0.341814309358597,0
364160,-0.342021465301514,0
364270,-0.341399997472763,0
364380,-0.341814309358597,0
364490,-0.341814309358597,0
364600,-0.341399997472763,0
364710,-0.340985685586929,0
364820,-0.342228621244431,0
364940,-0.342021465301514,0
365030,-0.34160715341568,0
365140,-0.34160715341568,0
365250,-0.342228621244431,0
365360,-0.340571343898773,0
365470,-0.34160715341568,0
365580,-0.342021465301514,0
365690,-0.342850118875504,0
365800,-0.341814309358597,0
365910,-0.34077849984169,0
366020,-0.342021465301514,0
366130,-0.34243580698967,0
366240,-0.341399997472763,0
366340,-0.340364187955856,0
366450,-0.34160715341568,0
366560,-0.34077849984169,0
366670,-0.341192841529846,0
366780,-0.34243580698967,0
366890,-0.342021465301514,0
367000,-0.341399997472763,0
367110,-0.342228621244431,0
367220,-0.340157032012939,0
367330,-0.34160715341568,0
367440,-0.342021465301514,0
367550,-0.341192841529846,0
367660,-0.341192841529846,0
367760,-0.341192841529846,0
367870,-0.341814309358597,0
367980,-0.341814309358597,0
368090,-0.342642962932587,0
368200,-0.34243580698967,0
368310,-0.342021465301514,0
368420,-0.342021465301514,0
368530,-0.34243580698967,0
368640,-0.342642962932587,0
368750,-0.341399997472763,0
368860,-0.341814309358597,0
368970,-0.342021465301514,0
369070,-0.342228621244431,0
369180,-0.342021465301514,0
369290,-0.342642962932587,0
369400,-0.340364187955856,0
369510,-0.341192841529846,0
369620,-0.340985685586929,0
369730,-0.34243580698967,0
369840,-0.340364187955856,0
369950,-0.34243580698967,0
370060,-0.341399997472763,0
370170,-0.341192841529846,0
370280,-0.34243580698967,0
370390,-0.341814309358597,0
370490,-0.342228621244431,0
370600,-0.34077849984169,0
370710,-0.34160715341568,0
370820,-0.34243580698967,0
370930,-0.34077849984169,0
371040,-0.342642962932587,0
371150,-0.340364187955856,0
371260,-0.340985685586929,0
371370,-0.341192841529846,0
371480,-0.342021465301514,0
371590,-0.342021465301514,0
371700,-0.342021465301514,0
371800,-0.34160715341568,0
371910,-0.34077849984169,0
372020,-0.341399997472763,0
372130,-0.340571343898773,0
372240,-0.340985685586929,0
372350,-0.341192841529846,0
372460,-0.341399997472763,0
372570,-0.341192841529846,0
372680,-0.341192841529846,0
372790,-0.341814309358597,0
372900,-0.34305727481842,0
373010,-0.341399997472763,0
373120,-0.340985685586929,0
373220,-0.341399997472763,0
373330,-0.34077849984169,0
373440,-0.341399997472763,0
373550,-0.342021465301514,0
373660,-0.341192841529846,0
373770,-0.341192841529846,0
373880,-0.342228621244431,0
373990,-0.342021465301514,0
374100,-0.341814309358597,0
374210,-0.341814309358597,0
374320,-0.340985685586929,0
374430,-0.341814309358597,0
374530,-0.341399997472763,0
374640,-0.340571343898773,0
374750,-0.341399997472763,0
374860,-0.341399997472763,0
374970,-0.341192841529846,0
375080,-0.34077849984169,0
375190,-0.342228621244431,0
375300,-0.34160715341568,0
375410,-0.341192841529846,0
375520,-0.342021465301514,0
375630,-0.341192841529846,0
375740,-0.341192841529846,0
375850,-0.342021465301514,0
375950,-0.342021465301514,0
376060,-0.341192841529846,0
376170,-0.340985685586929,0
376280,-0.34243580698967,0
376390,-0.342021465301514,0
376500,-0.341399997472763,0
376610,-0.341192841529846,0
376720,-0.341192841529846,0
376830,-0.342021465301514,0
376940,-0.34077849984169,0
377050,-0.34243580698967,0
377160,-0.34160715341568,0
377260,-0.342850118875504,0
377370,-0.34160715341568,0
377480,-0.341814309358597,0
377590,-0.342642962932587,0
377700,-0.34243580698967,0
377810,-0.341814309358597,0
377920,-0.342228621244431,0
378030,-0.34160715341568,0
378140,-0.341814309358597,0
378250,-0.339535564184189,0
378360,-0.340157032012939,0
378470,-0.341814309358597,0
378580,-0.342642962932587,0
378680,-0.341399997472763,0
378790,-0.34160715341568,0
378900,-0.34160715341568,0
379010,-0.342021465301514,0
379120,-0.34077849984169,0
379230,-0.341192841529846,0
379340,-0.341399997472763,0
379450,-0.34160715341568,0
379560,-0.342021465301514,0
379670,-0.342021465301514,0
379780,-0.34160715341568,0
379890,-0.341814309358597,0
379990,-0.34160715341568,0
380100,-0.341192841529846,0
380210,-0.34077849984169,0
380320,-0.341814309358597,0
380430,-0.34160715341568,0
380540,-0.34077849984169,0
380650,-0.340571343898773,0
380760,-0.34160715341568,0
380870,-0.341399997472763,0
380980,-0.342228621244431,0
381090,-0.341814309358597,0
381200,-0.339121222496033,0
381310,-0.34077849984169,0
381410,-0.34160715341568,0
381520,-0.341399997472763,0
381630,-0.340571343898773,0
381740,-0.342850118875504,0
381850,-0.341192841529846,0
381960,-0.342228621244431,0
382070,-0.341399997472763,0
382180,-0.340571343898773,0
382290,-0.34160715341568,0
382400,-0.342021465301514,0
382510,-0.34160715341568,0
382620,-0.341192841529846,0
382720,-0.341192841529846,0
382830,-0.34160715341568,0
382940,-0.34160715341568,0
383050,-0.341814309358597,0
383160,-0.340985685586929,0
383270,-0.340985685586929,0
383380,-0.340571343898773,0
383490,-0.341814309358597,0
383600,-0.34160715341568,0
383710,-0.341814309358597,0
383820,-0.341399997472763,0
383930,-0.341399997472763,0
384040,-0.34160715341568,0
384140,-0.341814309358597,0
384250,-0.339949876070023,0
384360,-0.342642962932587,0
384470,-0.341814309358597,0
384580,-0.342021465301514,0
384690,-0.342642962932587,0
384800,-0.342642962932587,0
384910,-0.340985685586929,0
385020,-0.340985685586929,0
385130,-0.340364187955856,0
385240,-0.341814309358597,0
385350,-0.34160715341568,0
385450,-0.34160715341568,0
385560,-0.341814309358597,0
385670,-0.34305727481842,0
385780,-0.341399997472763,0
385890,-0.342642962932587,0
386000,-0.341192841529846,0
386110,-0.341192841529846,0
386220,-0.34077849984169,0
386330,-0.340157032012939,0
386440,-0.341399997472763,0
386550,-0.340157032012939,0
386660,-0.341814309358597,0
386770,-0.34243580698967,0
386870,-0.340571343898773,0
386980,-0.341814309358597,0
387090,-0.341814309358597,0
387200,-0.340364187955856,0
387310,-0.34160715341568,0
387420,-0.34160715341568,0
387530,-0.341192841529846,0
387640,-0.341814309358597,0
387750,-0.341192841529846,0
387860,-0.34160715341568,0
387970,-0.342021465301514,0
388080,-0.340985685586929,0
388180,-0.341814309358597,0
388290,-0.341399997472763,0
388400,-0.34160715341568,0
388510,-0.34243580698967,0
388620,-0.341399997472763,0
388730,-0.341399997472763,0
388840,-0.34160715341568,0
388950,-0.340985685586929,0
389060,-0.341814309358597,0
389170,-0.341399997472763,0
389280,-0.342021465301514,0
389390,-0.341192841529846,0
389500,-0.342850118875504,0
389600,-0.341814309358597,0
389710,-0.341399997472763,0
389820,-0.342228621244431,0
389930,-0.340985685586929,0
390040,-0.340985685586929,0
390150,-0.341814309358597,0
390260,-0.34160715341568,0
390370,-0.342228621244431,0
390480,-0.340157032012939,0
390590,-0.342021465301514,0
390700,-0.341192841529846,0
390810,-0.340985685586929,0
390910,-0.341399997472763,0
391020,-0.340364187955856,0
391130,-0.340985685586929,0
391240,-0.342228621244431,0
391350,-0.34160715341568,0
391460,-0.341814309358597,0
391570,-0.34160715341568,0
391680,-0.341814309358597,0
391790,-0.342021465301514,0
391900,-0.34160715341568,0
392010,-0.341192841529846,0
392120,-0.341814309358597,0
392230,-0.34160715341568,0
392330,-0.340157032012939,0
392440,-0.341814309358597,0
392550,-0.342228621244431,0
392660,-0.34160715341568,0
392770,-0.341192841529846,0
392880,-0.341814309358597,0
392990,-0.341399997472763,0
393100,-0.34160715341568,0
393210,-0.340157032012939,0
393320,-0.341192841529846,0
393430,-0.341814309358597,0
393540,-0.341814309358597,0
393640,-0.34077849984169,0
393750,-0.34160715341568,0
393860,-0.341814309358597,0
393970,-0.341814309358597,0
394080,-0.341192841529846,0
394190,-0.341192841529846,0
394300,-0.341192841529846,0
394410,-0.34160715341568,0
394520,-0.341192841529846,0
394630,-0.340985685586929,0
394740,-0.34077849984169,0
394850,-0.342228621244431,0
394960,-0.34160715341568,0
395060,-0.341399997472763,0
395170,-0.341814309358597,0
395280,-0.34160715341568,0
395390,-0.342642962932587,0
395500,-0.342228621244431,0
395610,-0.341192841529846,0
395720,-0.342021465301514,0
395830,-0.34160715341568,0
395940,-0.341814309358597,0
396050,-0.34243580698967,0
396160,-0.341399997472763,0
396270,-0.342021465301514,0
396370,-0.340985685586929,0
396480,-0.342228621244431,0
396590,-0.34160715341568,0
396700,-0.341192841529846,0
396810,-0.342021465301514,0
396920,-0.34160715341568,0
397030,-0.341399997472763,0
397140,-0.341399997472763,0
397250,-0.34243580698967,0
397360,-0.341399997472763,0
397470,-0.341399997472763,0
397580,-0.341399997472763,0
397690,-0.342228621244431,0
397790,-0.34160715341568,0
397900,-0.340985685586929,0
398010,-0.34243580698967,0
398120,-0.341814309358597,0
398230,-0.341399997472763,0
398340,-0.34160715341568,0
398450,-0.341399997472763,0
398560,-0.34077849984169,0
398670,-0.341399997472763,0
398780,-0.341192841529846,0
398890,-0.341814309358597,0
399000,-0.341814309358597,0
399100,-0.341192841529846,0
399210,-0.34160715341568,0
399320,-0.34160715341568,0
399430,-0.342021465301514,0
399540,-0.34160715341568,0
399650,-0.342021465301514,0
399760,-0.341814309358597,0
399870,-0.34305727481842,0
399980,-0.34077849984169,0
400090,-0.340985685586929,0
400200,-0.34160715341568,0
400310,-0.341399997472763,0
400420,-0.34077849984169,0
400520,-0.34160715341568,0
400630,-0.341399997472763,0
400740,-0.34077849984169,0
400850,-0.340985685586929,0
400960,-0.342021465301514,0
401070,-0.34160715341568,0
401180,-0.34077849984169,0
401290,-0.342228621244431,0
401400,-0.341814309358597,0
401510,-0.342021465301514,0
401620,-0.341192841529846,0
401730,-0.34160715341568,0
401830,-0.341192841529846,0
401940,-0.341399997472763,0
402050,-0.340571343898773,0
402160,-0.341814309358597,0
402270,-0.341399997472763,0
402380,-0.342021465301514,0
402490,-0.341192841529846,0
402600,-0.341814309358597,0
402710,-0.341399997472763,0
402820,-0.342228621244431,0
402930,-0.34077849984169,0
403040,-0.340364187955856,0
403150,-0.341814309358597,0
403250,-0.341399997472763,0
403360,-0.342021465301514,0
403470,-0.342021465301514,0
403580,-0.342021465301514,0
403690,-0.34160715341568,0
403800,-0.34160715341568,0
403910,-0.341814309358597,0
404020,-0.341399997472763,0
404130,-0.340985685586929,0
404240,-0.34243580698967,0
404350,-0.342021465301514,0
404460,-0.342228621244431,0
404560,-0.34160715341568,0
404670,-0.342850118875504,0
404780,-0.342228621244431,0
404890,-0.340157032012939,0
405000,-0.342228621244431,0
405110,-0.341192841529846,0
405220,-0.34160715341568,0
405330,-0.34160715341568,0
405440,-0.342642962932587,0
405550,-0.341814309358597,0
405660,-0.341192841529846,0
405770,-0.341192841529846,0
405880,-0.342642962932587,0
405980,-0.343471586704254,0
406090,-0.342228621244431,0
406200,-0.341192841529846,0
406310,-0.340571343898773,0
406420,-0.34077849984169,0
406530,-0.340985685586929,0
406640,-0.341814309358597,0
406750,-0.342642962932587,0
406860,-0.34160715341568,0
406970,-0.340157032012939,0
407080,-0.34160715341568,0
407190,-0.34160715341568,0
407290,-0.342228621244431,0
407400,-0.341192841529846,0
407510,-0.340571343898773,0
407620,-0.341399997472763,0
407730,-0.340364187955856,0
407840,-0.341814309358597,0
407950,-0.341814309358597,0
408060,-0.34160715341568,0
408180,-0.342228621244431,0
408280,-0.341192841529846,0
408390,-0.340364187955856,0
408500,-0.341192841529846,0
408610,-0.34077849984169,0
408710,-0.34160715341568,0
408820,-0.340985685586929,0
408930,-0.34243580698967,0
409040,-0.342642962932587,0
409150,-0.340985685586929,0
409260,-0.34305727481842,0
409370,-0.340985685586929,0
409480,-0.340985685586929,0
409590,-0.34160715341568,0
409700,-0.341399997472763,0
409810,-0.341814309358597,0
409920,-0.341192841529846,0
410020,-0.340571343898773,0
410130,-0.342021465301514,0
410240,-0.34243580698967,0
410350,-0.340985685586929,0
410460,-0.34077849984169,0
410570,-0.34160715341568,0
410680,-0.34160715341568,0
410790,-0.342021465301514,0
410900,-0.340571343898773,0
411010,-0.34160715341568,0
411120,-0.341399997472763,0
411230,-0.341192841529846,0
411340,-0.341192841529846,0
411440,-0.342021465301514,0
411550,-0.34160715341568,0
411660,-0.340157032012939,0
411770,-0.341399997472763,0
411880,-0.341814309358597,0
411990,-0.341814309358597,0
412100,-0.340985685586929,0
412210,-0.342021465301514,0
412320,-0.342228621244431,0
412430,-0.341192841529846,0
412540,-0.341399997472763,0
412650,-0.340985685586929,0
412750,-0.34160715341568,0
412860,-0.340571343898773,0
412970,-0.339949876070023,0
413080,-0.341399997472763,0
413190,-0.342021465301514,0
413300,-0.341814309358597,0
413410,-0.34160715341568,0
413520,-0.342021465301514,0
413630,-0.341814309358597,0
413740,-0.341814309358597,0
413850,-0.341399997472763,0
413960,-0.34160715341568,0
414070,-0.341399997472763,0
414170,-0.342228621244431,0
414280,-0.341814309358597,0
414390,-0.341192841529846,0
414500,-0.342642962932587,0
414610,-0.341192841529846,0
414720,-0.340985685586929,0
414830,-0.340571343898773,0
414940,-0.341399997472763,0
415050,-0.34243580698967,0
415160,-0.341814309358597,0
415270,-0.341399997472763,0
415380,-0.341192841529846,0
415480,-0.340985685586929,0
415590,-0.342228621244431,0
415700,-0.342021465301514,0
415810,-0.342228621244431,0
415920,-0.34160715341568,0
416030,-0.341192841529846,0
416140,-0.340985685586929,0
416250,-0.34077849984169,0
416360,-0.340985685586929,0
416470,-0.342850118875504,0
416580,-0.34243580698967,0
416690,-0.34160715341568,0
416800,-0.34077849984169,0
416900,-0.34305727481842,0
417010,-0.34077849984169,0
417120,-0.34077849984169,0
417230,-0.342228621244431,0
417340,-0.34160715341568,0
417450,-0.34160715341568,0
417560,-0.342228621244431,0
417670,-0.342228621244431,0
417780,-0.34160715341568,0
417890,-0.341192841529846,0
418000,-0.342021465301514,0
418110,-0.34160715341568,0
418210,-0.34160715341568,0
418320,-0.342228621244431,0
418430,-0.34160715341568,0
418540,-0.342021465301514,0
418650,-0.341192841529846,0
418760,-0.342021465301514,0
418870,-0.342850118875504,0
418980,-0.341814309358597,0
419090,-0.34243580698967,0
419200,-0.34077849984169,0
419310,-0.342228621244431,0
419420,-0.341399997472763,0
419530,-0.340571343898773,0
419630,-0.34160715341568,0
419740,-0.342021465301514,0
419850,-0.34160715341568,0
419960,-0.342228621244431,0
420070,-0.34077849984169,0
420180,-0.340985685586929,0
420290,-0.342228621244431,0
420400,-0.34160715341568,0
420510,-0.342642962932587,0
420620,-0.341399997472763,0
420730,-0.342021465301514,0
420840,-0.34243580698967,0
420940,-0.341192841529846,0
421050,-0.34160715341568,0
421160,-0.341814309358597,0
421270,-0.341814309358597,0
421380,-0.34160715341568,0
421490,-0.34160715341568,0
421600,-0.34160715341568,0
421710,-0.341192841529846,0
421820,-0.341399997472763,0
421930,-0.340985685586929,0
422040,-0.340985685586929,0
422150,-0.34243580698967,0
422260,-0.342021465301514,0
422360,-0.342228621244431,0
422470,-0.341399997472763,0
422580,-0.342228621244431,0
422690,-0.341192841529846,0
422800,-0.34243580698967,0
422910,-0.340985685586929,0
423020,-0.342021465301514,0
423130,-0.342021465301514,0
423240,-0.341814309358597,0
423350,-0.342021465301514,0
423460,-0.341399997472763,0
423570,-0.342021465301514,0
423670,-0.340571343898773,0
423780,-0.340985685586929,0
423890,-0.34243580698967,0
424000,-0.341814309358597,0
424110,-0.341192841529846,0
424220,-0.34077849984169,0
424330,-0.340571343898773,0
424440,-0.341814309358597,0
424550,-0.341399997472763,0
424660,-0.341399997472763,0
424770,-0.34160715341568,0
424880,-0.341814309358597,0
424990,-0.340985685586929,0
425090,-0.342228621244431,0
425200,-0.34243580698967,0
425320,-0.34077849984169,0
425420,-0.341192841529846,0
425530,-0.341399997472763,0
425640,-0.342021465301514,0
425750,-0.342228621244431,0
425860,-0.341814309358597,0
425970,-0.341192841529846,0
426080,-0.341192841529846,0
426190,-0.34243580698967,0
426300,-0.34243580698967,0
426400,-0.341399997472763,0
426510,-0.34160715341568,0
426620,-0.340985685586929,0
426730,-0.341192841529846,0
426840,-0.341192841529846,0
426950,-0.341192841529846,0
427060,-0.341399997472763,0
427170,-0.341399997472763,0
427280,-0.341192841529846,0
427390,-0.34160715341568,0
427500,-0.340985685586929,0
427610,-0.34243580698967,0
427720,-0.34160715341568,0
427820,-0.34160715341568,0
427930,-0.34160715341568,0
428040,-0.341399997472763,0
428150,-0.34077849984169,0
428260,-0.34160715341568,0
428370,-0.342850118875504,0
428480,-0.341399997472763,0
428590,-0.341192841529846,0
428700,-0.34160715341568,0
428810,-0.34160715341568,0
428920,-0.34077849984169,0
429030,-0.341814309358597,0
429130,-0.340364187955856,0
429240,-0.34160715341568,0
429350,-0.341192841529846,0
429460,-0.341399997472763,0
429570,-0.341399997472763,0
429680,-0.34243580698967,0
429790,-0.342228621244431,0
429900,-0.341399997472763,0
430010,-0.341814309358597,0
430120,-0.341399997472763,0
430230,-0.341814309358597,0
430340,-0.340985685586929,0
430450,-0.340364187955856,0
430550,-0.343264430761337,0
430660,-0.341399997472763,0
430770,-0.341399997472763,0
430880,-0.341399997472763,0
430990,-0.34160715341568,0
431100,-0.340985685586929,0
431210,-0.340364187955856,0
431320,-0.34243580698967,0
431430,-0.341399997472763,0
431540,-0.341399997472763,0
431650,-0.342228621244431,0
431760,-0.34243580698967,0
431860,-0.34243580698967,0
431970,-0.340985685586929,0
432080,-0.341814309358597,0
432190,-0.341814309358597,0
432300,-0.341814309358597,0
432410,-0.340364187955856,0
432520,-0.341192841529846,0
432630,-0.34160715341568,0
432740,-0.34077849984169,0
432850,-0.340985685586929,0
432960,-0.341192841529846,0
433070,-0.342228621244431,0
433180,-0.342228621244431,0
433280,-0.34243580698967,0
433390,-0.342642962932587,0
433500,-0.34243580698967,0
433610,-0.34243580698967,0
433720,-0.340985685586929,0
433830,-0.341192841529846,0
433940,-0.341399997472763,0
434050,-0.341192841529846,0
434160,-0.34243580698967,0
434270,-0.340985685586929,0
434380,-0.341192841529846,0
434490,-0.342642962932587,0
434590,-0.341814309358597,0
434700,-0.34243580698967,0
434810,-0.34160715341568,0
434920,-0.341814309358597,0
435030,-0.34160715341568,0
435140,-0.341399997472763,0
435250,-0.342021465301514,0
435360,-0.342228621244431,0
435470,-0.342021465301514,0
435580,-0.341814309358597,0
435690,-0.341192841529846,0
435800,-0.340985685586929,0
435910,-0.340571343898773,0
436010,-0.340364187955856,0
436120,-0.341192841529846,0
436230,-0.342642962932587,0
436340,-0.341814309358597,0
436450,-0.341192841529846,0
436560,-0.341192841529846,0
436670,-0.342228621244431,0
436780,-0.34160715341568,0
436890,-0.340571343898773,0
437000,-0.340571343898773,0
437110,-0.340985685586929,0
437220,-0.340985685586929,0
437330,-0.341814309358597,0
437430,-0.340985685586929,0
437540,-0.340571343898773,0
437650,-0.342021465301514,0
437760,-0.342021465301514,0
437870,-0.34160715341568,0
437980,-0.341399997472763,0
438090,-0.341399997472763,0
438200,-0.341399997472763,0
438310,-0.341399997472763,0
438420,-0.342021465301514,0
438530,-0.34160715341568,0
438640,-0.342021465301514,0
438740,-0.341399997472763,0
438850,-0.34243580698967,0
438960,-0.34243580698967,0
439070,-0.341192841529846,0
439180,-0.340985685586929,0
439290,-0.342021465301514,0
439400,-0.340985685586929,0
439510,-0.341814309358597,0
439620,-0.342642962932587,0
439730,-0.342228621244431,0
439840,-0.340157032012939,0
439950,-0.341814309358597,0
440060,-0.341399997472763,0
440160,-0.342228621244431,0
440270,-0.340571343898773,0
440380,-0.341399997472763,0
440490,-0.342021465301514,0
440600,-0.341814309358597,0
440710,-0.341814309358597,0
440820,-0.341399997472763,0
440930,-0.341399997472763,0
441040,-0.341814309358597,0
441150,-0.341399997472763,0
441260,-0.340364187955856,0
441370,-0.341399997472763,0
441470,-0.341192841529846,0
441590,-0.341192841529846,0
441690,-0.341192841529846,0
441800,-0.34160715341568,0
441910,-0.342228621244431,0
442020,-0.341399997472763,0
442130,-0.341399997472763,0
442240,-0.34160715341568,0
442350,-0.34160715341568,0
442460,-0.340571343898773,0
442570,-0.342850118875504,0
442680,-0.341814309358597,0
442790,-0.341814309358597,0
442890,-0.341814309358597,0
443000,-0.341814309358597,0
443110,-0.341399997472763,0
443220,-0.340571343898773,0
443330,-0.340985685586929,0
443440,-0.34160715341568,0
443550,-0.34160715341568,0
443660,-0.340985685586929,0
443770,-0.342642962932587,0
443880,-0.341814309358597,0
443990,-0.340985685586929,0
444100,-0.34243580698967,0
444200,-0.34305727481842,0
444310,-0.341399997472763,0
444420,-0.342021465301514,0
444530,-0.341192841529846,0
444640,-0.342021465301514,0
444750,-0.340985685586929,0
444860,-0.341192841529846,0
444970,-0.342021465301514,0
445080,-0.341192841529846,0
445190,-0.34243580698967,0
445300,-0.342021465301514,0
445410,-0.342021465301514,0
445520,-0.340571343898773,0
445620,-0.340364187955856,0
445730,-0.341192841529846,0
445840,-0.341814309358597,0
445950,-0.341814309358597,0
446060,-0.34160715341568,0
446170,-0.341399997472763,0
446280,-0.34160715341568,0
446390,-0.341399997472763,0
446500,-0.342228621244431,0
446610,-0.34160715341568,0
446720,-0.342021465301514,0
446830,-0.342228621244431,0
446930,-0.34160715341568,0
447040,-0.34160715341568,0
447150,-0.342021465301514,0
447260,-0.34160715341568,0
447370,-0.342228621244431,0
447480,-0.341192841529846,0
447590,-0.341192841529846,0
447700,-0.341814309358597,0
447810,-0.34160715341568,0
447920,-0.341399997472763,0
448030,-0.340985685586929,0
448140,-0.340571343898773,0
448250,-0.342228621244431,0
448360,-0.34160715341568,0
448460,-0.341399997472763,0
448570,-0.34160715341568,0
448680,-0.342021465301514,0
448790,-0.34160715341568,0
448900,-0.341192841529846,0
449010,-0.342021465301514,0
449120,-0.340985685586929,0
449230,-0.341814309358597,0
449340,-0.342021465301514,0
449450,-0.34160715341568,0
449560,-0.340985685586929,0
449660,-0.342021465301514,0
449770,-0.342228621244431,0
449880,-0.34243580698967,0
449990,-0.341192841529846,0
450100,-0.342021465301514,0
450210,-0.341814309358597,0
450320,-0.340985685586929,0
450430,-0.34160715341568,0
450540,-0.340364187955856,0
450650,-0.342228621244431,0
450760,-0.341814309358597,0
450870,-0.34160715341568,0
450980,-0.342021465301514,0
451080,-0.34077849984169,0
451190,-0.341814309358597,0
451300,-0.341814309358597,0
451410,-0.34160715341568,0
451520,-0.342021465301514,0
451630,-0.341399997472763,0
451740,-0.340985685586929,0
451850,-0.341399997472763,0
451960,-0.342021465301514,0
452070,-0.341814309358597,0
452180,-0.341814309358597,0
452290,-0.341399997472763,0
452390,-0.342021465301514,0
452500,-0.342228621244431,0
452610,-0.341814309358597,0
452720,-0.34077849984169,0
452830,-0.34077849984169,0
452940,-0.341399997472763,0
453050,-0.341814309358597,0
453160,-0.340571343898773,0
453270,-0.341814309358597,0
453380,-0.340985685586929,0
453490,-0.342021465301514,0
453600,-0.34077849984169,0
453710,-0.342850118875504,0
453810,-0.341399997472763,0
453920,-0.340985685586929,0
454030,-0.341814309358597,0
454140,-0.342021465301514,0
454250,-0.341814309358597,0
454360,-0.34160715341568,0
454470,-0.34243580698967,0
454580,-0.341192841529846,0
454690,-0.341192841529846,0
454800,-0.340364187955856,0
454910,-0.34077849984169,0
455020,-0.340985685586929,0
455120,-0.341192841529846,0
455230,-0.341399997472763,0
455340,-0.341814309358597,0
455450,-0.342228621244431,0
455560,-0.34077849984169,0
455670,-0.340985685586929,0
455780,-0.342021465301514,0
455890,-0.341399997472763,0
456000,-0.34243580698967,0
456110,-0.341399997472763,0
456220,-0.341399997472763,0
456330,-0.341192841529846,0
456440,-0.342021465301514,0
456540,-0.34160715341568,0
456650,-0.34160715341568,0
456760,-0.342228621244431,0
456870,-0.340571343898773,0
456980,-0.34160715341568,0
457090,-0.341192841529846,0
457200,-0.34243580698967,0
457310,-0.341399997472763,0
457420,-0.34077849984169,0
457530,-0.339949876070023,0
457640,-0.342021465301514,0
457750,-0.34243580698967,0
457850,-0.340157032012939,0
457960,-0.34077849984169,0
458070,-0.341814309358597,0
458180,-0.341192841529846,0
458290,-0.340985685586929,0
458400,-0.341814309358597,0
458510,-0.341814309358597,0
458620,-0.341192841529846,0
458730,-0.340985685586929,0
458840,-0.34077849984169,0
458950,-0.340985685586929,0
459060,-0.341192841529846,0
459170,-0.342021465301514,0
459270,-0.34160715341568,0
459380,-0.341192841529846,0
459490,-0.34160715341568,0
459600,-0.342228621244431,0
459710,-0.341814309358597,0
459820,-0.341399997472763,0
459930,-0.342021465301514,0
460040,-0.340571343898773,0
460150,-0.342021465301514,0
460260,-0.340985685586929,0
460370,-0.341399997472763,0
460480,-0.341814309358597,0
460580,-0.342228621244431,0
460690,-0.342850118875504,0
460800,-0.341192841529846,0
460910,-0.341814309358597,0
461020,-0.34160715341568,0
461130,-0.34160715341568,0
461240,-0.342850118875504,0
461350,-0.341814309358597,0
461460,-0.34160715341568,0
461570,-0.342021465301514,0
461680,-0.342850118875504,0
461790,-0.341814309358597,0
461900,-0.341814309358597,0
462000,-0.34160715341568,0
462110,-0.341814309358597,0
462220,-0.34160715341568,0
462330,-0.341399997472763,0
462440,-0.341192841529846,0
462550,-0.341399997472763,0
462660,-0.340571343898773,0
462770,-0.341192841529846,0
462880,-0.342021465301514,0
462990,-0.340571343898773,0
463100,-0.34160715341568,0
463210,-0.34160715341568,0
463310,-0.341399997472763,0
463420,-0.341399997472763,0
463530,-0.341192841529846,0
463640,-0.342021465301514,0
463750,-0.339949876070023,0
463860,-0.341399997472763,0
463970,-0.341399997472763,0
464080,-0.34243580698967,0
464190,-0.342228621244431,0
464300,-0.341814309358597,0
464410,-0.34077849984169,0
464520,-0.342228621244431,0
464630,-0.340364187955856,0
464730,-0.342228621244431,0
