time,raw,transformed
6251,-0.339121222496033,0
6355,-0.336842477321625,0
6467,-0.337671101093292,0
6577,-0.338292598724365,0
6685,-0.337049633264542,0
6792,-0.337671101093292,0
6901,-0.338914066553116,0
7013,-0.338085442781448,0
7122,-0.337878257036209,0
7234,-0.338085442781448,0
7338,-0.337878257036209,0
7447,-0.338914066553116,0
7559,-0.337463945150375,0
7668,-0.338292598724365,0
7777,-0.338499754667282,0
7885,-0.338292598724365,0
7993,-0.339121222496033,0
8105,-0.337878257036209,0
8214,-0.337463945150375,0
8325,-0.337463945150375,0
8430,-0.337878257036209,0
8539,-0.336428135633469,0
8651,-0.338085442781448,0
8760,-0.338085442781448,0
8869,-0.339949876070023,0
8975,-0.339121222496033,0
9085,-0.339742720127106,0
9197,-0.338706910610199,0
9305,-0.339742720127106,0
9415,-0.337671101093292,0
9521,-0.338706910610199,0
9635,-0.337671101093292,0
9743,-0.337256789207459,0
9851,-0.338706910610199,0
9961,-0.33932837843895,0
10067,-0.339121222496033,0
10177,-0.339742720127106,0
10289,-0.338706910610199,0
10397,-0.336842477321625,0
10507,-0.33932837843895,0
10613,-0.338292598724365,0
10725,-0.338499754667282,0
10835,-0.337463945150375,0
10943,-0.338292598724365,0
11053,-0.33932837843895,0
11159,-0.338706910610199,0
11269,-0.337463945150375,0
11385,-0.339742720127106,0
11489,-0.339121222496033,0
11599,-0.338292598724365,0
11705,-0.33932837843895,0
11815,-0.338706910610199,0
11927,-0.338292598724365,0
12035,-0.337878257036209,0
12143,-0.33932837843895,0
12251,-0.338085442781448,0
12361,-0.33932837843895,0
12475,-0.338085442781448,0
12585,-0.33932837843895,0
12691,-0.339535564184189,0
12797,-0.338706910610199,0
12906,-0.339742720127106,0
13018,-0.340157032012939,0
13127,-0.338914066553116,0
13236,-0.338292598724365,0
13343,-0.33932837843895,0
13452,-0.338499754667282,0
13566,-0.337256789207459,0
13675,-0.33932837843895,0
13784,-0.338292598724365,0
13889,-0.339949876070023,0
13998,-0.33932837843895,0
14110,-0.338914066553116,0
14219,-0.338914066553116,0
14328,-0.337671101093292,0
14436,-0.339742720127106,0
14544,-0.339742720127106,0
14656,-0.339742720127106,0
14765,-0.338085442781448,0
14876,-0.338085442781448,0
14986,-0.339121222496033,0
15090,-0.33932837843895,0
15202,-0.33932837843895,0
15311,-0.338499754667282,0
15420,-0.338706910610199,0
15528,-0.338085442781448,0
15636,-0.338914066553116,0
15748,-0.338706910610199,0
15857,-0.33932837843895,0
15966,-0.339121222496033,0
16073,-0.338706910610199,0
16185,-0.340364187955856,0
16294,-0.340364187955856,0
16403,-0.339742720127106,0
16512,-0.341192841529846,0
16619,-0.340157032012939,0
16729,-0.339535564184189,0
16840,-0.337878257036209,0
16949,-0.337463945150375,0
17058,-0.339121222496033,0
17165,-0.338706910610199,0
17276,-0.33932837843895,0
17386,-0.338914066553116,0
17496,-0.33932837843895,0
17605,-0.338914066553116,0
17712,-0.340571343898773,0
17821,-0.34077849984169,0
17932,-0.338914066553116,0
18042,-0.339535564184189,0
18151,-0.338292598724365,0
18258,-0.338706910610199,0
18367,-0.339742720127106,0
18481,-0.338914066553116,0
18588,-0.34077849984169,0
18697,-0.340364187955856,0
18804,-0.339742720127106,0
18913,-0.338292598724365,0
19025,-0.33932837843895,0
19137,-0.33932837843895,0
19241,-0.33932837843895,0
19350,-0.338914066553116,0
19459,-0.338914066553116,0
19571,-0.340571343898773,0
19680,-0.339535564184189,0
19789,-0.33932837843895,0
19896,-0.34077849984169,0
20005,-0.33932837843895,0
20117,-0.340571343898773,0
20228,-0.339535564184189,0
20337,-0.338914066553116,0
20442,-0.339742720127106,0
20551,-0.338292598724365,0
20663,-0.340364187955856,0
20772,-0.340571343898773,0
20883,-0.339121222496033,0
20988,-0.338706910610199,0
21097,-0.339121222496033,0
21209,-0.338914066553116,0
21318,-0.340157032012939,0
21428,-0.339121222496033,0
21538,-0.339949876070023,0
21643,-0.340364187955856,0
21755,-0.340985685586929,0
21864,-0.338914066553116,0
21973,-0.340364187955856,0
22080,-0.339535564184189,0
22192,-0.339535564184189,0
22301,-0.339742720127106,0
22410,-0.339742720127106,0
22517,-0.340985685586929,0
22628,-0.339121222496033,0
22738,-0.339121222496033,0
22847,-0.339535564184189,0
22956,-0.340571343898773,0
23063,-0.339121222496033,0
23172,-0.33932837843895,0
23287,-0.338706910610199,0
23393,-0.339121222496033,0
23502,-0.340157032012939,0
23609,-0.340157032012939,0
23718,-0.339121222496033,0
23830,-0.33932837843895,0
23939,-0.33932837843895,0
24048,-0.34077849984169,0
24155,-0.338706910610199,0
24264,-0.339121222496033,0
24378,-0.338914066553116,0
24487,-0.340364187955856,0
24594,-0.339949876070023,0
24700,-0.341192841529846,0
24810,-0.339121222496033,0
24922,-0.340364187955856,0
25031,-0.33932837843895,0
25140,-0.338914066553116,0
25246,-0.340364187955856,0
25356,-0.340571343898773,0
25468,-0.34077849984169,0
25578,-0.338914066553116,0
25687,-0.339121222496033,0
25792,-0.339535564184189,0
25902,-0.341192841529846,0
26014,-0.33932837843895,0
26122,-0.34077849984169,0
26233,-0.339535564184189,0
26338,-0.339121222496033,0
26448,-0.339742720127106,0
26560,-0.339742720127106,0
26668,-0.339949876070023,0
26778,-0.341399997472763,0
26887,-0.341192841529846,0
26994,-0.339742720127106,0
27106,-0.340985685586929,0
27214,-0.340571343898773,0
27324,-0.340157032012939,0
27430,-0.337878257036209,0
27540,-0.341399997472763,0
27652,-0.339949876070023,0
27760,-0.339535564184189,0
27870,-0.340571343898773,0
27978,-0.339949876070023,0
28087,-0.339742720127106,0
28198,-0.339535564184189,0
28306,-0.339121222496033,0
28416,-0.339949876070023,0
28522,-0.340985685586929,0
28633,-0.340985685586929,0
28743,-0.339949876070023,0
28852,-0.33932837843895,0
28961,-0.338914066553116,0
29068,-0.342228621244431,0
29178,-0.340157032012939,0
29289,-0.339121222496033,0
29398,-0.339742720127106,0
29507,-0.341192841529846,0
29614,-0.339949876070023,0
29723,-0.34077849984169,0
29835,-0.339949876070023,0
29944,-0.340157032012939,0
30053,-0.340985685586929,0
30160,-0.340364187955856,0
30269,-0.341399997472763,0
30381,-0.340157032012939,0
30491,-0.339121222496033,0
30599,-0.33932837843895,0
30706,-0.340157032012939,0
30815,-0.339742720127106,0
30927,-0.340364187955856,0
31041,-0.339535564184189,0
31145,-0.340985685586929,0
31252,-0.34243580698967,0
31361,-0.33932837843895,0
31473,-0.339949876070023,0
31583,-0.340364187955856,0
31692,-0.338706910610199,0
31798,-0.339121222496033,0
31907,-0.339742720127106,0
32019,-0.34160715341568,0
32128,-0.339949876070023,0
32241,-0.339949876070023,0
32344,-0.33932837843895,0
32453,-0.339535564184189,0
32565,-0.339742720127106,0
32674,-0.340571343898773,0
32783,-0.340364187955856,0
32891,-0.339742720127106,0
32999,-0.340364187955856,0
33111,-0.342021465301514,0
33220,-0.339742720127106,0
33331,-0.339949876070023,0
33440,-0.338706910610199,0
33545,-0.340157032012939,0
33657,-0.34243580698967,0
33766,-0.340571343898773,0
33875,-0.340571343898773,0
33983,-0.340364187955856,0
34091,-0.340985685586929,0
34203,-0.339535564184189,0
34312,-0.33932837843895,0
34421,-0.340364187955856,0
34528,-0.341399997472763,0
34641,-0.339742720127106,0
34749,-0.340571343898773,0
34858,-0.33932837843895,0
34968,-0.341192841529846,0
35075,-0.340157032012939,0
35185,-0.340364187955856,0
35296,-0.341192841529846,0
35405,-0.340985685586929,0
35514,-0.339535564184189,0
35621,-0.340157032012939,0
35730,-0.339949876070023,0
35843,-0.34077849984169,0
35951,-0.338706910610199,0
36060,-0.340364187955856,0
36167,-0.34077849984169,0
36276,-0.339535564184189,0
36389,-0.340364187955856,0
36497,-0.340364187955856,0
36606,-0.341399997472763,0
36713,-0.34160715341568,0
36822,-0.341192841529846,0
36934,-0.340985685586929,0
37044,-0.34077849984169,0
37152,-0.340364187955856,0
37259,-0.341192841529846,0
37368,-0.340157032012939,0
37480,-0.340364187955856,0
37593,-0.339121222496033,0
37698,-0.340985685586929,0
37805,-0.33932837843895,0
37914,-0.340985685586929,0
38026,-0.340985685586929,0
38136,-0.341192841529846,0
38244,-0.339742720127106,0
38351,-0.341399997472763,0
38460,-0.340364187955856,0
38574,-0.339742720127106,0
38681,-0.339949876070023,0
38793,-0.340571343898773,0
38897,-0.341192841529846,0
39006,-0.342021465301514,0
39118,-0.339535564184189,0
39227,-0.340364187955856,0
39336,-0.338499754667282,0
39443,-0.340364187955856,0
39552,-0.338914066553116,0
39664,-0.341399997472763,0
39773,-0.340157032012939,0
39884,-0.340985685586929,0
39993,-0.338914066553116,0
40098,-0.34077849984169,0
40210,-0.34077849984169,0
40319,-0.340157032012939,0
40428,-0.340571343898773,0
40536,-0.340157032012939,0
40644,-0.34077849984169,0
40756,-0.342642962932587,0
40865,-0.340364187955856,0
40974,-0.339949876070023,0
41081,-0.340157032012939,0
41194,-0.339949876070023,0
41302,-0.341192841529846,0
41411,-0.339535564184189,0
41520,-0.34160715341568,0
41627,-0.34077849984169,0
41736,-0.340985685586929,0
41848,-0.340157032012939,0
41957,-0.340571343898773,0
42066,-0.340571343898773,0
42173,-0.338914066553116,0
42285,-0.34077849984169,0
42396,-0.340571343898773,0
42503,-0.340364187955856,0
42612,-0.34077849984169,0
42719,-0.34160715341568,0
42828,-0.340985685586929,0
42944,-0.341192841529846,0
43049,-0.339535564184189,0
43158,-0.339949876070023,0
43265,-0.340157032012939,0
43374,-0.33932837843895,0
43487,-0.340985685586929,0
43595,-0.340571343898773,0
43704,-0.339949876070023,0
43811,-0.34077849984169,0
43920,-0.340364187955856,0
44032,-0.340571343898773,0
44145,-0.338914066553116,0
44250,-0.342642962932587,0
44357,-0.340364187955856,0
44466,-0.340985685586929,0
44578,-0.341399997472763,0
44687,-0.341399997472763,0
44799,-0.340157032012939,0
44902,-0.340157032012939,0
45012,-0.340157032012939,0
45124,-0.340364187955856,0
45232,-0.342228621244431,0
45343,-0.340571343898773,0
45448,-0.340571343898773,0
45558,-0.340157032012939,0
45670,-0.341814309358597,0
45778,-0.341192841529846,0
45889,-0.339535564184189,0
45997,-0.340571343898773,0
46104,-0.340985685586929,0
46217,-0.340571343898773,0
46324,-0.341192841529846,0
46434,-0.341399997472763,0
46542,-0.340157032012939,0
46650,-0.340364187955856,0
46762,-0.338706910610199,0
46870,-0.340157032012939,0
46980,-0.34077849984169,0
47087,-0.340157032012939,0
47197,-0.339742720127106,0
47308,-0.339949876070023,0
47416,-0.340985685586929,0
47526,-0.341192841529846,0
47632,-0.342228621244431,0
47742,-0.338914066553116,0
47854,-0.339949876070023,0
47962,-0.341399997472763,0
48072,-0.340985685586929,0
48178,-0.340985685586929,0
48289,-0.340364187955856,0
48399,-0.340157032012939,0
48508,-0.339742720127106,0
48617,-0.340157032012939,0
48724,-0.341192841529846,0
48833,-0.340157032012939,0
48946,-0.340364187955856,0
49054,-0.340985685586929,0
49163,-0.341192841529846,0
49270,-0.339742720127106,0
49379,-0.340571343898773,0
49492,-0.341814309358597,0
49600,-0.34160715341568,0
49709,-0.34077849984169,0
49816,-0.339949876070023,0
49925,-0.340571343898773,0
50037,-0.340985685586929,0
50147,-0.341192841529846,0
50255,-0.342642962932587,0
50362,-0.340571343898773,0
50471,-0.339742720127106,0
50583,-0.339949876070023,0
50693,-0.34077849984169,0
50801,-0.34077849984169,0
50908,-0.341814309358597,0
51017,-0.341192841529846,0
51129,-0.340985685586929,0
51239,-0.339949876070023,0
51347,-0.33932837843895,0
51454,-0.339949876070023,0
51563,-0.34077849984169,0
51675,-0.34077849984169,0
51784,-0.339535564184189,0
51897,-0.340364187955856,0
52000,-0.340571343898773,0
52109,-0.340985685586929,0
52221,-0.341399997472763,0
52330,-0.339742720127106,0
52440,-0.341192841529846,0
52549,-0.340985685586929,0
52656,-0.341192841529846,0
52768,-0.341399997472763,0
52877,-0.340571343898773,0
52988,-0.339949876070023,0
53098,-0.342021465301514,0
53202,-0.341399997472763,0
53314,-0.340364187955856,0
53423,-0.340157032012939,0
53530,-0.340571343898773,0
53640,-0.340157032012939,0
53751,-0.340985685586929,0
53860,-0.34077849984169,0
53969,-0.340157032012939,0
54076,-0.34077849984169,0
54185,-0.340985685586929,0
54298,-0.340364187955856,0
54406,-0.340985685586929,0
54515,-0.341399997472763,0
54622,-0.340571343898773,0
54731,-0.341192841529846,0
54848,-0.340985685586929,0
54952,-0.340157032012939,0
55065,-0.340571343898773,0
55168,-0.34077849984169,0
55277,-0.341399997472763,0
55389,-0.34160715341568,0
55498,-0.340571343898773,0
55607,-0.342021465301514,0
55715,-0.340571343898773,0
55823,-0.34077849984169,0
55935,-0.340157032012939,0
56044,-0.340571343898773,0
56155,-0.34077849984169,0
56264,-0.340571343898773,0
56369,-0.340985685586929,0
56481,-0.339742720127106,0
56590,-0.340571343898773,0
56699,-0.340364187955856,0
56808,-0.34077849984169,0
56915,-0.340571343898773,0
57027,-0.340157032012939,0
57136,-0.340985685586929,0
57245,-0.341399997472763,0
57352,-0.340157032012939,0
57464,-0.341192841529846,0
57573,-0.340571343898773,0
57682,-0.341399997472763,0
57791,-0.341399997472763,0
57898,-0.341399997472763,0
58007,-0.340571343898773,0
58119,-0.339949876070023,0
58228,-0.340985685586929,0
58337,-0.341192841529846,0
58444,-0.34077849984169,0
58555,-0.340985685586929,0
58665,-0.34077849984169,0
58774,-0.341192841529846,0
58883,-0.34077849984169,0
58990,-0.340985685586929,0
59099,-0.340571343898773,0
59216,-0.340364187955856,0
59320,-0.341399997472763,0
59429,-0.340157032012939,0
59536,-0.340157032012939,0
59645,-0.340985685586929,0
59757,-0.340571343898773,0
59866,-0.339121222496033,0
59975,-0.340364187955856,0
60082,-0.340985685586929,0
60191,-0.340571343898773,0
60305,-0.341399997472763,0
60414,-0.341399997472763,0
60521,-0.340364187955856,0
60627,-0.339535564184189,0
60737,-0.34077849984169,0
60849,-0.340157032012939,0
60958,-0.34160715341568,0
61090,-0.340157032012939,0
61173,-0.341192841529846,0
61283,-0.340157032012939,0
61395,-0.341192841529846,0
61505,-0.340985685586929,0
61615,-0.34077849984169,0
61719,-0.342021465301514,0
61829,-0.340985685586929,0
61941,-0.341192841529846,0
62049,-0.341399997472763,0
62160,-0.341399997472763,0
62265,-0.340985685586929,0
62375,-0.340985685586929,0
62487,-0.341192841529846,0
62595,-0.341192841529846,0
62705,-0.339949876070023,0
62812,-0.342021465301514,0
62921,-0.340364187955856,0
63033,-0.341192841529846,0
63141,-0.340364187955856,0
63251,-0.342228621244431,0
63358,-0.340571343898773,0
63467,-0.33932837843895,0
63579,-0.340571343898773,0
63687,-0.339949876070023,0
63797,-0.341399997472763,0
63903,-0.341192841529846,0
64016,-0.341399997472763,0
64124,-0.33932837843895,0
64233,-0.341192841529846,0
64342,-0.341192841529846,0
64449,-0.34160715341568,0
64559,-0.340157032012939,0
64670,-0.34160715341568,0
64779,-0.34077849984169,0
64888,-0.341399997472763,0
64995,-0.340985685586929,0
65106,-0.341814309358597,0
65216,-0.340571343898773,0
65325,-0.340364187955856,0
65434,-0.340157032012939,0
65541,-0.339535564184189,0
65650,-0.341814309358597,0
65767,-0.34077849984169,0
65871,-0.34243580698967,0
65980,-0.342021465301514,0
66087,-0.341192841529846,0
66196,-0.340985685586929,0
66309,-0.341399997472763,0
66417,-0.34160715341568,0
66526,-0.339949876070023,0
66633,-0.339742720127106,0
66742,-0.340985685586929,0
66854,-0.340571343898773,0
66967,-0.341399997472763,0
67072,-0.341814309358597,0
67179,-0.340157032012939,0
67288,-0.340364187955856,0
67400,-0.340364187955856,0
67510,-0.341399997472763,0
67618,-0.339535564184189,0
67725,-0.34077849984169,0
67834,-0.340985685586929,0
67946,-0.340157032012939,0
68057,-0.340985685586929,0
68167,-0.340364187955856,0
68271,-0.340985685586929,0
68380,-0.340985685586929,0
68492,-0.341814309358597,0
68601,-0.34160715341568,0
68712,-0.339535564184189,0
68817,-0.339949876070023,0
68926,-0.339742720127106,0
69038,-0.342228621244431,0
69147,-0.34243580698967,0
69256,-0.342021465301514,0
69364,-0.340985685586929,0
69472,-0.340571343898773,0
69584,-0.341814309358597,0
69693,-0.341192841529846,0
69802,-0.342228621244431,0
69910,-0.340157032012939,0
70020,-0.34160715341568,0
70131,-0.340571343898773,0
70240,-0.34077849984169,0
70349,-0.340364187955856,0
70456,-0.34160715341568,0
70565,-0.340985685586929,0
70677,-0.33932837843895,0
70786,-0.340364187955856,0
70895,-0.34160715341568,0
71002,-0.339949876070023,0
71113,-0.342021465301514,0
71225,-0.340157032012939,0
71332,-0.34077849984169,0
71441,-0.341192841529846,0
71548,-0.341192841529846,0
71657,-0.34077849984169,0
71770,-0.339535564184189,0
71878,-0.341814309358597,0
71987,-0.341814309358597,0
72094,-0.34160715341568,0
72203,-0.340571343898773,0
72316,-0.339949876070023,0
72424,-0.340157032012939,0
72533,-0.341192841529846,0
72640,-0.340157032012939,0
72749,-0.339742720127106,0
72863,-0.34160715341568,0
72970,-0.341399997472763,0
73079,-0.340985685586929,0
73186,-0.34077849984169,0
73295,-0.340985685586929,0
73407,-0.340364187955856,0
73520,-0.339742720127106,0
73625,-0.339949876070023,0
73732,-0.341399997472763,0
73841,-0.340571343898773,0
73953,-0.341192841529846,0
74062,-0.340571343898773,0
74171,-0.342021465301514,0
74278,-0.341814309358597,0
74387,-0.340985685586929,0
74499,-0.34077849984169,0
74610,-0.340364187955856,0
74719,-0.340157032012939,0
74824,-0.340157032012939,0
74933,-0.340571343898773,0
75045,-0.341814309358597,0
75154,-0.341399997472763,0
75265,-0.341192841529846,0
75370,-0.34243580698967,0
75479,-0.342642962932587,0
75591,-0.340571343898773,0
75700,-0.34160715341568,0
75811,-0.341399997472763,0
75920,-0.340364187955856,0
76025,-0.340157032012939,0
76137,-0.341814309358597,0
76246,-0.341399997472763,0
76355,-0.340364187955856,0
76463,-0.34077849984169,0
76571,-0.341192841529846,0
76683,-0.340985685586929,0
76792,-0.341192841529846,0
76901,-0.34077849984169,0
77011,-0.340157032012939,0
77120,-0.340157032012939,0
77229,-0.341814309358597,0
77338,-0.341814309358597,0
77447,-0.340157032012939,0
77554,-0.342228621244431,0
77665,-0.34160715341568,0
77775,-0.34077849984169,0
77884,-0.341399997472763,0
77991,-0.340571343898773,0
78100,-0.339949876070023,0
78211,-0.340985685586929,0
78321,-0.341399997472763,0
78430,-0.341814309358597,0
78539,-0.340985685586929,0
78646,-0.340364187955856,0
78755,-0.342021465301514,0
78870,-0.339949876070023,0
78976,-0.340571343898773,0
79085,-0.341814309358597,0
79192,-0.34243580698967,0
79301,-0.342228621244431,0
79415,-0.341192841529846,0
79522,-0.339949876070023,0
79631,-0.340157032012939,0
79738,-0.341192841529846,0
79847,-0.340157032012939,0
79960,-0.340571343898773,0
80070,-0.343264430761337,0
80177,-0.339535564184189,0
80283,-0.341399997472763,0
80393,-0.338706910610199,0
80505,-0.340364187955856,0
80615,-0.34077849984169,0
80723,-0.340157032012939,0
80829,-0.340571343898773,0
80939,-0.34077849984169,0
81051,-0.34243580698967,0
81161,-0.339949876070023,0
81270,-0.340157032012939,0
81375,-0.341192841529846,0
81485,-0.34160715341568,0
81597,-0.342021465301514,0
81705,-0.340364187955856,0
81816,-0.342021465301514,0
81924,-0.34160715341568,0
82031,-0.34160715341568,0
82143,-0.340364187955856,0
82251,-0.341192841529846,0
82361,-0.34160715341568,0
82467,-0.342228621244431,0
82577,-0.340157032012939,0
82689,-0.34160715341568,0
82797,-0.340364187955856,0
82907,-0.341399997472763,0
83015,-0.340985685586929,0
83124,-0.341814309358597,0
83235,-0.341192841529846,0
83343,-0.340985685586929,0
83453,-0.341399997472763,0
83559,-0.340571343898773,0
83669,-0.340985685586929,0
83781,-0.341399997472763,0
83889,-0.341814309358597,0
83998,-0.340157032012939,0
84105,-0.340985685586929,0
84214,-0.340985685586929,0
84326,-0.34077849984169,0
84435,-0.341399997472763,0
84542,-0.340364187955856,0
84651,-0.340571343898773,0
84764,-0.340571343898773,0
84875,-0.339742720127106,0
84981,-0.34160715341568,0
85088,-0.340985685586929,0
85197,-0.340985685586929,0
85309,-0.340364187955856,0
85419,-0.340985685586929,0
85527,-0.340364187955856,0
85634,-0.339949876070023,0
85743,-0.34160715341568,0
85855,-0.341399997472763,0
85965,-0.342850118875504,0
86074,-0.341192841529846,0
86180,-0.341192841529846,0
86289,-0.341814309358597,0
86401,-0.342021465301514,0
86510,-0.340985685586929,0
86620,-0.341399997472763,0
86726,-0.33932837843895,0
86835,-0.34160715341568,0
86947,-0.340985685586929,0
87056,-0.342021465301514,0
87165,-0.34077849984169,0
87275,-0.341814309358597,0
87381,-0.34077849984169,0
87494,-0.341192841529846,0
87603,-0.340364187955856,0
87712,-0.341399997472763,0
87819,-0.341192841529846,0
87928,-0.340985685586929,0
88040,-0.34077849984169,0
88149,-0.341814309358597,0
88258,-0.340364187955856,0
88367,-0.34077849984169,0
88476,-0.34077849984169,0
88586,-0.34077849984169,0
88695,-0.341814309358597,0
88804,-0.340985685586929,0
88911,-0.339949876070023,0
89021,-0.340985685586929,0
89132,-0.339949876070023,0
89241,-0.34160715341568,0
89350,-0.341399997472763,0
89457,-0.34077849984169,0
89566,-0.340571343898773,0
89678,-0.341192841529846,0
89787,-0.340985685586929,0
89896,-0.341399997472763,0
90003,-0.34160715341568,0
90112,-0.341399997472763,0
90223,-0.341192841529846,0
90333,-0.34077849984169,0
90442,-0.341192841529846,0
90549,-0.341399997472763,0
90658,-0.340157032012939,0
90772,-0.340364187955856,0
90879,-0.34243580698967,0
90988,-0.340985685586929,0
91095,-0.34160715341568,0
91204,-0.340364187955856,0
91317,-0.341192841529846,0
91426,-0.341399997472763,0
91534,-0.34077849984169,0
91641,-0.341399997472763,0
91750,-0.341814309358597,0
91862,-0.34077849984169,0
91972,-0.34077849984169,0
92080,-0.34160715341568,0
92187,-0.342021465301514,0
92296,-0.341399997472763,0
92408,-0.341192841529846,0
92517,-0.340157032012939,0
92628,-0.34077849984169,0
92733,-0.340571343898773,0
92842,-0.342021465301514,0
92954,-0.341814309358597,0
93063,-0.340364187955856,0
93172,-0.340985685586929,0
93279,-0.34160715341568,0
93388,-0.340985685586929,0
93500,-0.341399997472763,0
93609,-0.342021465301514,0
93719,-0.34160715341568,0
93826,-0.341814309358597,0
93934,-0.34077849984169,0
94046,-0.338706910610199,0
94155,-0.339535564184189,0
94264,-0.340571343898773,0
94372,-0.34160715341568,0
94480,-0.341399997472763,0
94592,-0.342021465301514,0
94701,-0.34160715341568,0
94810,-0.34077849984169,0
94917,-0.341192841529846,0
95027,-0.340364187955856,0
95138,-0.342021465301514,0
95247,-0.341814309358597,0
95356,-0.340571343898773,0
95463,-0.341399997472763,0
95578,-0.340571343898773,0
95687,-0.340985685586929,0
95792,-0.340985685586929,0
95902,-0.341192841529846,0
96008,-0.341399997472763,0
96118,-0.34160715341568,0
96231,-0.341814309358597,0
96341,-0.340985685586929,0
96448,-0.341192841529846,0
96554,-0.341192841529846,0
96664,-0.340571343898773,0
96776,-0.340571343898773,0
96886,-0.34243580698967,0
96994,-0.340985685586929,0
97100,-0.340985685586929,0
97210,-0.341399997472763,0
97319,-0.340571343898773,0
97431,-0.339535564184189,0
97541,-0.340571343898773,0
97646,-0.341192841529846,0
97756,-0.339742720127106,0
97868,-0.34160715341568,0
97976,-0.342642962932587,0
98086,-0.340985685586929,0
98192,-0.343264430761337,0
98302,-0.341399997472763,0
98414,-0.341399997472763,0
98522,-0.340985685586929,0
98633,-0.34077849984169,0
98741,-0.34077849984169,0
98848,-0.340985685586929,0
98960,-0.34160715341568,0
99068,-0.34077849984169,0
99178,-0.340571343898773,0
99286,-0.34160715341568,0
99394,-0.34077849984169,0
99506,-0.341192841529846,0
99614,-0.34243580698967,0
99723,-0.340571343898773,0
99831,-0.341399997472763,0
99941,-0.340985685586929,0
100053,-0.341399997472763,0
100160,-0.340985685586929,0
100269,-0.340364187955856,0
100376,-0.34160715341568,0
100486,-0.34243580698967,0
100597,-0.340364187955856,0
100706,-0.342021465301514,0
100815,-0.339949876070023,0
100922,-0.341192841529846,0
101031,-0.340571343898773,0
101143,-0.340985685586929,0
101252,-0.341192841529846,0
101361,-0.341814309358597,0
101468,-0.340985685586929,0
101577,-0.340985685586929,0
101690,-0.34160715341568,0
101798,-0.340985685586929,0
101907,-0.342021465301514,0
102014,-0.340985685586929,0
102123,-0.341814309358597,0
102236,-0.340985685586929,0
102344,-0.340985685586929,0
102453,-0.340985685586929,0
102560,-0.340985685586929,0
102669,-0.33932837843895,0
102783,-0.341192841529846,0
102893,-0.341399997472763,0
102999,-0.34160715341568,0
103106,-0.341399997472763,0
103215,-0.340364187955856,0
103327,-0.340157032012939,0
103438,-0.341814309358597,0
103545,-0.340157032012939,0
103652,-0.342850118875504,0
103761,-0.339949876070023,0
103873,-0.340157032012939,0
103984,-0.342021465301514,0
104093,-0.345543205738068,0
104198,-0.34305727481842,0
104307,-0.342228621244431,0
104416,-0.339121222496033,0
104528,-0.339949876070023,0
104639,-0.33932837843895,0
104744,-0.34160715341568,0
104853,-0.34243580698967,0
104966,-0.341399997472763,0
105075,-0.341192841529846,0
105185,-0.340985685586929,0
105295,-0.342228621244431,0
105400,-0.340157032012939,0
105512,-0.341192841529846,0
105621,-0.34243580698967,0
105730,-0.342021465301514,0
105837,-0.340985685586929,0
105946,-0.342228621244431,0
106058,-0.34077849984169,0
106167,-0.340985685586929,0
106276,-0.339535564184189,0
106385,-0.342021465301514,0
106495,-0.340571343898773,0
106604,-0.341814309358597,0
106713,-0.340157032012939,0
106822,-0.341192841529846,0
106929,-0.342228621244431,0
107039,-0.34160715341568,0
107150,-0.342642962932587,0
107259,-0.339742720127106,0
107368,-0.341192841529846,0
107475,-0.340985685586929,0
107585,-0.34077849984169,0
107696,-0.34243580698967,0
107805,-0.34077849984169,0
107914,-0.341192841529846,0
108021,-0.341399997472763,0
108130,-0.341192841529846,0
108245,-0.341399997472763,0
108351,-0.340571343898773,0
108460,-0.34160715341568,0
108567,-0.342228621244431,0
108676,-0.341192841529846,0
108789,-0.341814309358597,0
108897,-0.341814309358597,0
109006,-0.340985685586929,0
109113,-0.339949876070023,0
109222,-0.341192841529846,0
109334,-0.341192841529846,0
109447,-0.340571343898773,0
109552,-0.341192841529846,0
109659,-0.339742720127106,0
109768,-0.342850118875504,0
109880,-0.34077849984169,0
109989,-0.341814309358597,0
110098,-0.341814309358597,0
110205,-0.34077849984169,0
110314,-0.340364187955856,0
110426,-0.341192841529846,0
110537,-0.340985685586929,0
110646,-0.340571343898773,0
110751,-0.340571343898773,0
110860,-0.34160715341568,0
110972,-0.340364187955856,0
111081,-0.34077849984169,0
111192,-0.340571343898773,0
111299,-0.34160715341568,0
111406,-0.34077849984169,0
111515,-0.340571343898773,0
111627,-0.341192841529846,0
111737,-0.34160715341568,0
111847,-0.34077849984169,0
111952,-0.341399997472763,0
112064,-0.340364187955856,0
112173,-0.341814309358597,0
112282,-0.340364187955856,0
112389,-0.342228621244431,0
112498,-0.340364187955856,0
112610,-0.341399997472763,0
112719,-0.34160715341568,0
112828,-0.341399997472763,0
112937,-0.341192841529846,0
113046,-0.341399997472763,0
113156,-0.341814309358597,0
113265,-0.340157032012939,0
113374,-0.341399997472763,0
113481,-0.340571343898773,0
113592,-0.34160715341568,0
113702,-0.34243580698967,0
113811,-0.34305727481842,0
113920,-0.340157032012939,0
114027,-0.34077849984169,0
114137,-0.34160715341568,0
114248,-0.34077849984169,0
114357,-0.340985685586929,0
114466,-0.341192841529846,0
114573,-0.34077849984169,0
114682,-0.341192841529846,0
114796,-0.340364187955856,0
114903,-0.34160715341568,0
115012,-0.341814309358597,0
115119,-0.34077849984169,0
115228,-0.340571343898773,0
115342,-0.34077849984169,0
115448,-0.340985685586929,0
115558,-0.340364187955856,0
115664,-0.340985685586929,0
115776,-0.34077849984169,0
115887,-0.341192841529846,0
115996,-0.341192841529846,0
116101,-0.342021465301514,0
116210,-0.342850118875504,0
116322,-0.340985685586929,0
116431,-0.34077849984169,0
116541,-0.34077849984169,0
116647,-0.340985685586929,0
116756,-0.340985685586929,0
116868,-0.34243580698967,0
116977,-0.34160715341568,0
117087,-0.340985685586929,0
117196,-0.340985685586929,0
117302,-0.341399997472763,0
117414,-0.340985685586929,0
117523,-0.34077849984169,0
117632,-0.340571343898773,0
117739,-0.34077849984169,0
117848,-0.341399997472763,0
117960,-0.340985685586929,0
118069,-0.339742720127106,0
118178,-0.341399997472763,0
118287,-0.341192841529846,0
118397,-0.340157032012939,0
118506,-0.34160715341568,0
118613,-0.34077849984169,0
118724,-0.340364187955856,0
118831,-0.341814309358597,0
118942,-0.339742720127106,0
119052,-0.34077849984169,0
119161,-0.341399997472763,0
119270,-0.341399997472763,0
119377,-0.341814309358597,0
119487,-0.342850118875504,0
119598,-0.340571343898773,0
119707,-0.342228621244431,0
119816,-0.340571343898773,0
119923,-0.340364187955856,0
120032,-0.341399997472763,0
120147,-0.339949876070023,0
120253,-0.340985685586929,0
120362,-0.341192841529846,0
120469,-0.34077849984169,0
120578,-0.340985685586929,0
120692,-0.340364187955856,0
120799,-0.342021465301514,0
120908,-0.341399997472763,0
121015,-0.340985685586929,0
121124,-0.34077849984169,0
121236,-0.340571343898773,0
121349,-0.340364187955856,0
121454,-0.341399997472763,0
121561,-0.341192841529846,0
121670,-0.341399997472763,0
121782,-0.340985685586929,0
121891,-0.34305727481842,0
122000,-0.340157032012939,0
122107,-0.341399997472763,0
122216,-0.341192841529846,0
122328,-0.341399997472763,0
122440,-0.340985685586929,0
122550,-0.341192841529846,0
122654,-0.340364187955856,0
122763,-0.34160715341568,0
122875,-0.339742720127106,0
122984,-0.34160715341568,0
123095,-0.341192841529846,0
123200,-0.341814309358597,0
123309,-0.340985685586929,0
123423,-0.340364187955856,0
123530,-0.34077849984169,0
123641,-0.339742720127106,0
123750,-0.340985685586929,0
123855,-0.340571343898773,0
123967,-0.340985685586929,0
124076,-0.342228621244431,0
124185,-0.340571343898773,0
124292,-0.34160715341568,0
124401,-0.342021465301514,0
124511,-0.341399997472763,0
124622,-0.340985685586929,0
124731,-0.340985685586929,0
124841,-0.340571343898773,0
124949,-0.34243580698967,0
125059,-0.341399997472763,0
125168,-0.34077849984169,0
125277,-0.339949876070023,0
125384,-0.342228621244431,0
125495,-0.341192841529846,0
125605,-0.341399997472763,0
125711,-0.341192841529846,0
125823,-0.34077849984169,0
125930,-0.341814309358597,0
126040,-0.34160715341568,0
126151,-0.34160715341568,0
126260,-0.341814309358597,0
126369,-0.340985685586929,0
126476,-0.340364187955856,0
126585,-0.34160715341568,0
126700,-0.340571343898773,0
126806,-0.34243580698967,0
126915,-0.341399997472763,0
127022,-0.342642962932587,0
127131,-0.340364187955856,0
127245,-0.342021465301514,0
127352,-0.340985685586929,0
127461,-0.342228621244431,0
127568,-0.341814309358597,0
127677,-0.340571343898773,0
127791,-0.341399997472763,0
127900,-0.340364187955856,0
128010,-0.342021465301514,0
128114,-0.34160715341568,0
128223,-0.342021465301514,0
128335,-0.34077849984169,0
128445,-0.34077849984169,0
128553,-0.341399997472763,0
128660,-0.34243580698967,0
128769,-0.340364187955856,0
128883,-0.340985685586929,0
128991,-0.341192841529846,0
129100,-0.34243580698967,0
129206,-0.341192841529846,0
129315,-0.34243580698967,0
129427,-0.340364187955856,0
129536,-0.342021465301514,0
129647,-0.34077849984169,0
129752,-0.341814309358597,0
129861,-0.341399997472763,0
129973,-0.342021465301514,0
130082,-0.340985685586929,0
130192,-0.341814309358597,0
130302,-0.340157032012939,0
130407,-0.34243580698967,0
130519,-0.341814309358597,0
130628,-0.34160715341568,0
130737,-0.34077849984169,0
130844,-0.341192841529846,0
130953,-0.339949876070023,0
131065,-0.341399997472763,0
131173,-0.340571343898773,0
131283,-0.34160715341568,0
131389,-0.341192841529846,0
131501,-0.341192841529846,0
131611,-0.34160715341568,0
131719,-0.340571343898773,0
131829,-0.34160715341568,0
131935,-0.340985685586929,0
132047,-0.340985685586929,0
132157,-0.34077849984169,0
132265,-0.34077849984169,0
132375,-0.340985685586929,0
132481,-0.341192841529846,0
132592,-0.34160715341568,0
132703,-0.34160715341568,0
132809,-0.341399997472763,0
132921,-0.341192841529846,0
133027,-0.340985685586929,0
133137,-0.34160715341568,0
133251,-0.341192841529846,0
133357,-0.342228621244431,0
133467,-0.340364187955856,0
133573,-0.340985685586929,0
133683,-0.34077849984169,0
133797,-0.341399997472763,0
133903,-0.341192841529846,0
134013,-0.340985685586929,0
134119,-0.340157032012939,0
134229,-0.34160715341568,0
134342,-0.341192841529846,0
134451,-0.34077849984169,0
134559,-0.342642962932587,0
134665,-0.340571343898773,0
134775,-0.340985685586929,0
134887,-0.341399997472763,0
134997,-0.340364187955856,0
135104,-0.341192841529846,0
135211,-0.341814309358597,0
135320,-0.340985685586929,0
135432,-0.341399997472763,0
135544,-0.34160715341568,0
135651,-0.341192841529846,0
135757,-0.342021465301514,0
135866,-0.342021465301514,0
135978,-0.34160715341568,0
136087,-0.340364187955856,0
136197,-0.34077849984169,0
136303,-0.34160715341568,0
136412,-0.34243580698967,0
136524,-0.340157032012939,0
136633,-0.34160715341568,0
136742,-0.34077849984169,0
136852,-0.341399997472763,0
136958,-0.342850118875504,0
137070,-0.341192841529846,0
137179,-0.341399997472763,0
137288,-0.340571343898773,0
137397,-0.34077849984169,0
137504,-0.340985685586929,0
137616,-0.34160715341568,0
137725,-0.342228621244431,0
137834,-0.34077849984169,0
137942,-0.341814309358597,0
138052,-0.34160715341568,0
138162,-0.341192841529846,0
138271,-0.341192841529846,0
138380,-0.340985685586929,0
138487,-0.34160715341568,0
138596,-0.34077849984169,0
138708,-0.341399997472763,0
138817,-0.341814309358597,0
138926,-0.34160715341568,0
139033,-0.34160715341568,0
139144,-0.342642962932587,0
139254,-0.341192841529846,0
139363,-0.341192841529846,0
139472,-0.340985685586929,0
139579,-0.340985685586929,0
139688,-0.341192841529846,0
139804,-0.341399997472763,0
139908,-0.342021465301514,0
140019,-0.34243580698967,0
140126,-0.340571343898773,0
140235,-0.340985685586929,0
140348,-0.341399997472763,0
140458,-0.34160715341568,0
140565,-0.340985685586929,0
140672,-0.34077849984169,0
140781,-0.341399997472763,0
140893,-0.34077849984169,0
141003,-0.341814309358597,0
141111,-0.341399997472763,0
141218,-0.342021465301514,0
141327,-0.34077849984169,0
141439,-0.34243580698967,0
141548,-0.34160715341568,0
141658,-0.340571343898773,0
141764,-0.340364187955856,0
141873,-0.34160715341568,0
141985,-0.340364187955856,0
142094,-0.341192841529846,0
142209,-0.340985685586929,0
142310,-0.341192841529846,0
142419,-0.341814309358597,0
142531,-0.342642962932587,0
142640,-0.34160715341568,0
142750,-0.341399997472763,0
142858,-0.34077849984169,0
142965,-0.342228621244431,0
143077,-0.341814309358597,0
143186,-0.34077849984169,0
143295,-0.342850118875504,0
143403,-0.340571343898773,0
143511,-0.34160715341568,0
143623,-0.340364187955856,0
143732,-0.342228621244431,0
143839,-0.340985685586929,0
143948,-0.339742720127106,0
144058,-0.341399997472763,0
144169,-0.34160715341568,0
144278,-0.34160715341568,0
144387,-0.341399997472763,0
144494,-0.342021465301514,0
144603,-0.340985685586929,0
144715,-0.340571343898773,0
144824,-0.34077849984169,0
144933,-0.342850118875504,0
145040,-0.341814309358597,0
145150,-0.34243580698967,0
145261,-0.342228621244431,0
145370,-0.339742720127106,0
145479,-0.338085442781448,0
145586,-0.34243580698967,0
145695,-0.339742720127106,0
145808,-0.34388592839241,0
145916,-0.340985685586929,0
146025,-0.341399997472763,0
146132,-0.340157032012939,0
146241,-0.343471586704254,0
146353,-0.341192841529846,0
146462,-0.34160715341568,0
146571,-0.341814309358597,0
146678,-0.34160715341568,0
146787,-0.341399997472763,0
146901,-0.341192841529846,0
147007,-0.34243580698967,0
147114,-0.34243580698967,0
147224,-0.342021465301514,0
147336,-0.341192841529846,0
147444,-0.341399997472763,0
147558,-0.341814309358597,0
147660,-0.340985685586929,0
147770,-0.34160715341568,0
147882,-0.341399997472763,0
147990,-0.341399997472763,0
148101,-0.340364187955856,0
148208,-0.341399997472763,0
148316,-0.34160715341568,0
148428,-0.340571343898773,0
148536,-0.340571343898773,0
148646,-0.34243580698967,0
148754,-0.340985685586929,0
148862,-0.340985685586929,0
148974,-0.34243580698967,0
149082,-0.341192841529846,0
149192,-0.34077849984169,0
149299,-0.342021465301514,0
149409,-0.340157032012939,0
149520,-0.340985685586929,0
149628,-0.342642962932587,0
149738,-0.341814309358597,0
149844,-0.342021465301514,0
149954,-0.34077849984169,0
150066,-0.340571343898773,0
150174,-0.34160715341568,0
150284,-0.340571343898773,0
150390,-0.341192841529846,0
150501,-0.34243580698967,0
150612,-0.340364187955856,0
150720,-0.34160715341568,0
150829,-0.342021465301514,0
150936,-0.340364187955856,0
151045,-0.34160715341568,0
151159,-0.340364187955856,0
151266,-0.342021465301514,0
151375,-0.34160715341568,0
151482,-0.34160715341568,0
151591,-0.341192841529846,0
151704,-0.34243580698967,0
151812,-0.340157032012939,0
151921,-0.340985685586929,0
152028,-0.341399997472763,0
152137,-0.342642962932587,0
152249,-0.342228621244431,0
152358,-0.34243580698967,0
152467,-0.342228621244431,0
152574,-0.340571343898773,0
152683,-0.340157032012939,0
152795,-0.341192841529846,0
152909,-0.342021465301514,0
153013,-0.34243580698967,0
153120,-0.341814309358597,0
153229,-0.341814309358597,0
153341,-0.340985685586929,0
153451,-0.339949876070023,0
153559,-0.34077849984169,0
153666,-0.341399997472763,0
153775,-0.342228621244431,0
153887,-0.341192841529846,0
153996,-0.342021465301514,0
154104,-0.341814309358597,0
154212,-0.339742720127106,0
154321,-0.340571343898773,0
154433,-0.34160715341568,0
154542,-0.341192841529846,0
154651,-0.341192841529846,0
154759,-0.34160715341568,0
154867,-0.34160715341568,0
154979,-0.340157032012939,0
155088,-0.341399997472763,0
155199,-0.341399997472763,0
155304,-0.341399997472763,0
155413,-0.342021465301514,0
155525,-0.34160715341568,0
155634,-0.341399997472763,0
155743,-0.341399997472763,0
155851,-0.340571343898773,0
155959,-0.339949876070023,0
156071,-0.340571343898773,0
156180,-0.340571343898773,0
156289,-0.341814309358597,0
156399,-0.342021465301514,0
156509,-0.34160715341568,0
156617,-0.341399997472763,0
156726,-0.341399997472763,0
156835,-0.341814309358597,0
156942,-0.342021465301514,0
157051,-0.34160715341568,0
157163,-0.342021465301514,0
157272,-0.34160715341568,0
157382,-0.340364187955856,0
157489,-0.340985685586929,0
157598,-0.340571343898773,0
157712,-0.340985685586929,0
157819,-0.342850118875504,0
157928,-0.340157032012939,0
158035,-0.341814309358597,0
158144,-0.341399997472763,0
158257,-0.340985685586929,0
158365,-0.342228621244431,0
158474,-0.34160715341568,0
158581,-0.34160715341568,0
158690,-0.341814309358597,0
158802,-0.341192841529846,0
158911,-0.341814309358597,0
159020,-0.34160715341568,0
159127,-0.34160715341568,0
159236,-0.339949876070023,0
159348,-0.34160715341568,0
159462,-0.340985685586929,0
159566,-0.342021465301514,0
159673,-0.342021465301514,0
159782,-0.342642962932587,0
159894,-0.341399997472763,0
160004,-0.340985685586929,0
160112,-0.341192841529846,0
160219,-0.341399997472763,0
160328,-0.34160715341568,0
160440,-0.341399997472763,0
160549,-0.341399997472763,0
160661,-0.341192841529846,0
160765,-0.341192841529846,0
160874,-0.340985685586929,0
160986,-0.34160715341568,0
161095,-0.340364187955856,0
161202,-0.34160715341568,0
161312,-0.34077849984169,0
161420,-0.342642962932587,0
161532,-0.341814309358597,0
161641,-0.341399997472763,0
161752,-0.339949876070023,0
161861,-0.341192841529846,0
161966,-0.340985685586929,0
162078,-0.342021465301514,0
162187,-0.341192841529846,0
162296,-0.341399997472763,0
162405,-0.34160715341568,0
162512,-0.340985685586929,0
162624,-0.341192841529846,0
162733,-0.341192841529846,0
162842,-0.342228621244431,0
162949,-0.340985685586929,0
163061,-0.342850118875504,0
163170,-0.340985685586929,0
163279,-0.341192841529846,0
163388,-0.342642962932587,0
163495,-0.340985685586929,0
163604,-0.341192841529846,0
163716,-0.340364187955856,0
163825,-0.341192841529846,0
163934,-0.339949876070023,0
164041,-0.342021465301514,0
164152,-0.341192841529846,0
164262,-0.341192841529846,0
164371,-0.340364187955856,0
164480,-0.341399997472763,0
164587,-0.340985685586929,0
164696,-0.342228621244431,0
164812,-0.340985685586929,0
164917,-0.341814309358597,0
165026,-0.340985685586929,0
165133,-0.341192841529846,0
165242,-0.341814309358597,0
165354,-0.341192841529846,0
165463,-0.342228621244431,0
165572,-0.342642962932587,0
165679,-0.342228621244431,0
165788,-0.342642962932587,0
165902,-0.34077849984169,0
166011,-0.34077849984169,0
166118,-0.34160715341568,0
166225,-0.342850118875504,0
166334,-0.341814309358597,0
166446,-0.34243580698967,0
166554,-0.341814309358597,0
166664,-0.340157032012939,0
166770,-0.34160715341568,0
166880,-0.340985685586929,0
166992,-0.341399997472763,0
167102,-0.34077849984169,0
167213,-0.34160715341568,0
167316,-0.340364187955856,0
167426,-0.341399997472763,0
167538,-0.34243580698967,0
167646,-0.341192841529846,0
167757,-0.341814309358597,0
167862,-0.341399997472763,0
167972,-0.342850118875504,0
168081,-0.340571343898773,0
168192,-0.34160715341568,0
168302,-0.34160715341568,0
168412,-0.342021465301514,0
168518,-0.341399997472763,0
168632,-0.340985685586929,0
168738,-0.34160715341568,0
168848,-0.34077849984169,0
168955,-0.34160715341568,0
169064,-0.340571343898773,0
169176,-0.34160715341568,0
169284,-0.341399997472763,0
169394,-0.340985685586929,0
169502,-0.34243580698967,0
169613,-0.340985685586929,0
169722,-0.340571343898773,0
169830,-0.340985685586929,0
169940,-0.341399997472763,0
170046,-0.340985685586929,0
170158,-0.34077849984169,0
170268,-0.341814309358597,0
170376,-0.34160715341568,0
170485,-0.342021465301514,0
170592,-0.34243580698967,0
170703,-0.342021465301514,0
170813,-0.342228621244431,0
170922,-0.341192841529846,0
171031,-0.342021465301514,0
171138,-0.33932837843895,0
171247,-0.342021465301514,0
171363,-0.339949876070023,0
171468,-0.34160715341568,0
171577,-0.34160715341568,0
171684,-0.34077849984169,0
171793,-0.34077849984169,0
171908,-0.342228621244431,0
172014,-0.342228621244431,0
172123,-0.340985685586929,0
172230,-0.34077849984169,0
172339,-0.341814309358597,0
172452,-0.341814309358597,0
172562,-0.34160715341568,0
172669,-0.341399997472763,0
172776,-0.342021465301514,0
172885,-0.341399997472763,0
172997,-0.34243580698967,0
173107,-0.341814309358597,0
173215,-0.340985685586929,0
173322,-0.34160715341568,0
173431,-0.34160715341568,0
173543,-0.34077849984169,0
173652,-0.34077849984169,0
173761,-0.340985685586929,0
173868,-0.341192841529846,0
173977,-0.341399997472763,0
174089,-0.341814309358597,0
174198,-0.342642962932587,0
174307,-0.341192841529846,0
174414,-0.34160715341568,0
174523,-0.341399997472763,0
174635,-0.34077849984169,0
174744,-0.341814309358597,0
174856,-0.342021465301514,0
174965,-0.341399997472763,0
175070,-0.34160715341568,0
175182,-0.34077849984169,0
175291,-0.34160715341568,0
175398,-0.340364187955856,0
175507,-0.342642962932587,0
175616,-0.341399997472763,0
175728,-0.341399997472763,0
175837,-0.341192841529846,0
175946,-0.34160715341568,0
176055,-0.34160715341568,0
176165,-0.34243580698967,0
176274,-0.342228621244431,0
176383,-0.341399997472763,0
176492,-0.340157032012939,0
176599,-0.341192841529846,0
176710,-0.342021465301514,0
176820,-0.34077849984169,0
176929,-0.340985685586929,0
177038,-0.341399997472763,0
177145,-0.341192841529846,0
177255,-0.342021465301514,0
177366,-0.34160715341568,0
177475,-0.34077849984169,0
177584,-0.341814309358597,0
177691,-0.341814309358597,0
177800,-0.340985685586929,0
177915,-0.34243580698967,0
178021,-0.340985685586929,0
178128,-0.34243580698967,0
178237,-0.341814309358597,0
178349,-0.34077849984169,0
178459,-0.341814309358597,0
178568,-0.342021465301514,0
178674,-0.340985685586929,0
178783,-0.341814309358597,0
178895,-0.343264430761337,0
179004,-0.341399997472763,0
179117,-0.342642962932587,0
179220,-0.341399997472763,0
179329,-0.34077849984169,0
179441,-0.340985685586929,0
179547,-0.340571343898773,0
179660,-0.342228621244431,0
179768,-0.340571343898773,0
179875,-0.342642962932587,0
179987,-0.341399997472763,0
180096,-0.341814309358597,0
180207,-0.340985685586929,0
180317,-0.34243580698967,0
180421,-0.341814309358597,0
180533,-0.340571343898773,0
180642,-0.341192841529846,0
180751,-0.342021465301514,0
180859,-0.341814309358597,0
180967,-0.340157032012939,0
181079,-0.342021465301514,0
181188,-0.340985685586929,0
181297,-0.342021465301514,0
181404,-0.34077849984169,0
181517,-0.34160715341568,0
181625,-0.34077849984169,0
181734,-0.340571343898773,0
181843,-0.341814309358597,0
181950,-0.340364187955856,0
182060,-0.34077849984169,0
182171,-0.341192841529846,0
182279,-0.342850118875504,0
182389,-0.34243580698967,0
182495,-0.341399997472763,0
182607,-0.34077849984169,0
182718,-0.341192841529846,0
182825,-0.340364187955856,0
182935,-0.342228621244431,0
183041,-0.341399997472763,0
183151,-0.341192841529846,0
183266,-0.34160715341568,0
183371,-0.342228621244431,0
183481,-0.34160715341568,0
183587,-0.34243580698967,0
183697,-0.342021465301514,0
183809,-0.342021465301514,0
183917,-0.342642962932587,0
184027,-0.339949876070023,0
184133,-0.342642962932587,0
184243,-0.340364187955856,0
184357,-0.34243580698967,0
184467,-0.34160715341568,0
184573,-0.34160715341568,0
184679,-0.340985685586929,0
184789,-0.34077849984169,0
184899,-0.341399997472763,0
185009,-0.342228621244431,0
185119,-0.342850118875504,0
185225,-0.34077849984169,0
185335,-0.34160715341568,0
185447,-0.340571343898773,0
185557,-0.342228621244431,0
185667,-0.342021465301514,0
185771,-0.341814309358597,0
185881,-0.342021465301514,0
185993,-0.341399997472763,0
186101,-0.342021465301514,0
186212,-0.341399997472763,0
186317,-0.34160715341568,0
186426,-0.340571343898773,0
186540,-0.342228621244431,0
186647,-0.34243580698967,0
186757,-0.340985685586929,0
186863,-0.341814309358597,0
186972,-0.340985685586929,0
187084,-0.341399997472763,0
187193,-0.340985685586929,0
187302,-0.34160715341568,0
187410,-0.34160715341568,0
187518,-0.341192841529846,0
187630,-0.340985685586929,0
187739,-0.340985685586929,0
187848,-0.340364187955856,0
187955,-0.340364187955856,0
188068,-0.341399997472763,0
188176,-0.34243580698967,0
188285,-0.34077849984169,0
188394,-0.342228621244431,0
188501,-0.342228621244431,0
188610,-0.342228621244431,0
188722,-0.340571343898773,0
188831,-0.342021465301514,0
188940,-0.340364187955856,0
189047,-0.341399997472763,0
189158,-0.34305727481842,0
189268,-0.340985685586929,0
189377,-0.341399997472763,0
189486,-0.342228621244431,0
189593,-0.342642962932587,0
189702,-0.341814309358597,0
189817,-0.341814309358597,0
189923,-0.340571343898773,0
190032,-0.34077849984169,0
190139,-0.34160715341568,0
190248,-0.340157032012939,0
190363,-0.341192841529846,0
190469,-0.342021465301514,0
190578,-0.341814309358597,0
190685,-0.34160715341568,0
190794,-0.341192841529846,0
190908,-0.340985685586929,0
191018,-0.340157032012939,0
191124,-0.341814309358597,0
191231,-0.341814309358597,0
191340,-0.340571343898773,0
191452,-0.342228621244431,0
191562,-0.340985685586929,0
191670,-0.341192841529846,0
191777,-0.34160715341568,0
191886,-0.340985685586929,0
191998,-0.34160715341568,0
192108,-0.341192841529846,0
192217,-0.341399997472763,0
192324,-0.341399997472763,0
192433,-0.341814309358597,0
192545,-0.341192841529846,0
192654,-0.341399997472763,0
192764,-0.339742720127106,0
192870,-0.341814309358597,0
192979,-0.340364187955856,0
193091,-0.34305727481842,0
193200,-0.342021465301514,0
193309,-0.34243580698967,0
193418,-0.34243580698967,0
193525,-0.342228621244431,0
193637,-0.340364187955856,0
193746,-0.340571343898773,0
193855,-0.341814309358597,0
193965,-0.34077849984169,0
194071,-0.340571343898773,0
194183,-0.342021465301514,0
194292,-0.340364187955856,0
194401,-0.341192841529846,0
194509,-0.341192841529846,0
194618,-0.342021465301514,0
194729,-0.341399997472763,0
194838,-0.342021465301514,0
194947,-0.341399997472763,0
195054,-0.340985685586929,0
195164,-0.341399997472763,0
195275,-0.340157032012939,0
195384,-0.34305727481842,0
195493,-0.342021465301514,0
195600,-0.341399997472763,0
195709,-0.34160715341568,0
195821,-0.342642962932587,0
195930,-0.342021465301514,0
196039,-0.341399997472763,0
196146,-0.342021465301514,0
196255,-0.340985685586929,0
196370,-0.341814309358597,0
196476,-0.34160715341568,0
196585,-0.341814309358597,0
196692,-0.34160715341568,0
196801,-0.341399997472763,0
196915,-0.341192841529846,0
197022,-0.341814309358597,0
197131,-0.341192841529846,0
197238,-0.341399997472763,0
197347,-0.340985685586929,0
197460,-0.340571343898773,0
197570,-0.341814309358597,0
197677,-0.340985685586929,0
197784,-0.341814309358597,0
197893,-0.342021465301514,0
198005,-0.340985685586929,0
198115,-0.34305727481842,0
198223,-0.341814309358597,0
198330,-0.340985685586929,0
198439,-0.341192841529846,0
198551,-0.342228621244431,0
198660,-0.342021465301514,0
198769,-0.34243580698967,0
198876,-0.34243580698967,0
198985,-0.34160715341568,0
199097,-0.342228621244431,0
199206,-0.340157032012939,0
199317,-0.342228621244431,0
199422,-0.34077849984169,0
199531,-0.341814309358597,0
199643,-0.34243580698967,0
199752,-0.341399997472763,0
199862,-0.342642962932587,0
199971,-0.342228621244431,0
200077,-0.340985685586929,0
200189,-0.341399997472763,0
200298,-0.342021465301514,0
200407,-0.340985685586929,0
200516,-0.341399997472763,0
200623,-0.34160715341568,0
200735,-0.341814309358597,0
200844,-0.341192841529846,0
200953,-0.340571343898773,0
201061,-0.340985685586929,0
201171,-0.341192841529846,0
201281,-0.34160715341568,0
201390,-0.340985685586929,0
201499,-0.341814309358597,0
201606,-0.340985685586929,0
201716,-0.342850118875504,0
201827,-0.341192841529846,0
201935,-0.34160715341568,0
202045,-0.342228621244431,0
202151,-0.340157032012939,0
202261,-0.342021465301514,0
202373,-0.340985685586929,0
202481,-0.340985685586929,0
202591,-0.340157032012939,0
202697,-0.341814309358597,0
202807,-0.341399997472763,0
202921,-0.342021465301514,0
203027,-0.34077849984169,0
203137,-0.341399997472763,0
203243,-0.342021465301514,0
203353,-0.34160715341568,0
203467,-0.34160715341568,0
203576,-0.341399997472763,0
203683,-0.342021465301514,0
203789,-0.342228621244431,0
203899,-0.34160715341568,0
204011,-0.340985685586929,0
204121,-0.34243580698967,0
204229,-0.34160715341568,0
204335,-0.34077849984169,0
204445,-0.341814309358597,0
204557,-0.342642962932587,0
204667,-0.342228621244431,0
204776,-0.340571343898773,0
204881,-0.341192841529846,0
204991,-0.340571343898773,0
205103,-0.341399997472763,0
205211,-0.341814309358597,0
205322,-0.34077849984169,0
205427,-0.340364187955856,0
205537,-0.341192841529846,0
205649,-0.341814309358597,0
205757,-0.342850118875504,0
205867,-0.341192841529846,0
205976,-0.340571343898773,0
206082,-0.341814309358597,0
206194,-0.339949876070023,0
206303,-0.342642962932587,0
206412,-0.339949876070023,0
206519,-0.340571343898773,0
206628,-0.342021465301514,0
206740,-0.342228621244431,0
206849,-0.34388592839241,0
206958,-0.34160715341568,0
207068,-0.34160715341568,0
207177,-0.340985685586929,0
207286,-0.342228621244431,0
207395,-0.34305727481842,0
207504,-0.341814309358597,0
207611,-0.340157032012939,0
207722,-0.34160715341568,0
207832,-0.34243580698967,0
207941,-0.34243580698967,0
208050,-0.34160715341568,0
208157,-0.341399997472763,0
208267,-0.34077849984169,0
208378,-0.342021465301514,0
208487,-0.342228621244431,0
208596,-0.342228621244431,0
208703,-0.34160715341568,0
208812,-0.341814309358597,0
208928,-0.34160715341568,0
209033,-0.342021465301514,0
209142,-0.341192841529846,0
209249,-0.34160715341568,0
209361,-0.34160715341568,0
209472,-0.34160715341568,0
209579,-0.342850118875504,0
209686,-0.340985685586929,0
209795,-0.340985685586929,0
209908,-0.341399997472763,0
210018,-0.34160715341568,0
210128,-0.341399997472763,0
210233,-0.342228621244431,0
210342,-0.341192841529846,0
210454,-0.341399997472763,0
210563,-0.343471586704254,0
210673,-0.340571343898773,0
210779,-0.342021465301514,0
210888,-0.340985685586929,0
211000,-0.343264430761337,0
211109,-0.340364187955856,0
211218,-0.343471586704254,0
211325,-0.340364187955856,0
211434,-0.340985685586929,0
211546,-0.341192841529846,0
211655,-0.342228621244431,0
211764,-0.34077849984169,0
211873,-0.342642962932587,0
211980,-0.342228621244431,0
212092,-0.34077849984169,0
212201,-0.34160715341568,0
212310,-0.340985685586929,0
212418,-0.342228621244431,0
212528,-0.342021465301514,0
212638,-0.341192841529846,0
212747,-0.342021465301514,0
212856,-0.340571343898773,0
212963,-0.342021465301514,0
213074,-0.340985685586929,0
213184,-0.341814309358597,0
213293,-0.341192841529846,0
213402,-0.341814309358597,0
213509,-0.34077849984169,0
213618,-0.340985685586929,0
213730,-0.341814309358597,0
213839,-0.341814309358597,0
213948,-0.341814309358597,0
214055,-0.34243580698967,0
214164,-0.342642962932587,0
214277,-0.341399997472763,0
214385,-0.34077849984169,0
214494,-0.342021465301514,0
214601,-0.341399997472763,0
214710,-0.341814309358597,0
214823,-0.34243580698967,0
214931,-0.340985685586929,0
215040,-0.341399997472763,0
215147,-0.34077849984169,0
215256,-0.340985685586929,0
215370,-0.34077849984169,0
215480,-0.343264430761337,0
215586,-0.342642962932587,0
215693,-0.343471586704254,0
215802,-0.340985685586929,0
215914,-0.342228621244431,0
216025,-0.339742720127106,0
216132,-0.341399997472763,0
216239,-0.342021465301514,0
216348,-0.34243580698967,0
216460,-0.341814309358597,0
216570,-0.341814309358597,0
216679,-0.34160715341568,0
216785,-0.342021465301514,0
216894,-0.341192841529846,0
217006,-0.34077849984169,0
217115,-0.342228621244431,0
217225,-0.340985685586929,0
217331,-0.340985685586929,0
217440,-0.341192841529846,0
217552,-0.340364187955856,0
217661,-0.341399997472763,0
217770,-0.342021465301514,0
217879,-0.34305727481842,0
217986,-0.339949876070023,0
218098,-0.340571343898773,0
218206,-0.341192841529846,0
218316,-0.342850118875504,0
218422,-0.341192841529846,0
218532,-0.342228621244431,0
218644,-0.34160715341568,0
218752,-0.341399997472763,0
218862,-0.341814309358597,0
218970,-0.34160715341568,0
219080,-0.340571343898773,0
219190,-0.340985685586929,0
219298,-0.342021465301514,0
219408,-0.341399997472763,0
219514,-0.341192841529846,0
219625,-0.340985685586929,0
219736,-0.341814309358597,0
219844,-0.341814309358597,0
219954,-0.34160715341568,0
220060,-0.34160715341568,0
220170,-0.341814309358597,0
220282,-0.341399997472763,0
220390,-0.342850118875504,0
220500,-0.339121222496033,0
220606,-0.341399997472763,0
220716,-0.340157032012939,0
220829,-0.34305727481842,0
220936,-0.339121222496033,0
221046,-0.342228621244431,0
221152,-0.340985685586929,0
221262,-0.342642962932587,0
221372,-0.341399997472763,0
221482,-0.340571343898773,0
221592,-0.342021465301514,0
221699,-0.34243580698967,0
221807,-0.342021465301514,0
221919,-0.34160715341568,0
222028,-0.341192841529846,0
222137,-0.341814309358597,0
222244,-0.341192841529846,0
222356,-0.339535564184189,0
222465,-0.34305727481842,0
222574,-0.34160715341568,0
222683,-0.34160715341568,0
222790,-0.341399997472763,0
222899,-0.340985685586929,0
223011,-0.341814309358597,0
223120,-0.341814309358597,0
223229,-0.34077849984169,0
223336,-0.341814309358597,0
223447,-0.340571343898773,0
223557,-0.34160715341568,0
223666,-0.34305727481842,0
223775,-0.34305727481842,0
223882,-0.341192841529846,0
223991,-0.341814309358597,0
224107,-0.340157032012939,0
224212,-0.342021465301514,0
224321,-0.341399997472763,0
224428,-0.341814309358597,0
224537,-0.341814309358597,0
224649,-0.341814309358597,0
224758,-0.341192841529846,0
224867,-0.342228621244431,0
224974,-0.341192841529846,0
225083,-0.342228621244431,0
225198,-0.342021465301514,0
225307,-0.342021465301514,0
225413,-0.339742720127106,0
225520,-0.342642962932587,0
225629,-0.340985685586929,0
225741,-0.34388592839241,0
225852,-0.339742720127106,0
225959,-0.34305727481842,0
226066,-0.340985685586929,0
226175,-0.34243580698967,0
226287,-0.340364187955856,0
226397,-0.342642962932587,0
226531,-0.342021465301514,0
226612,-0.341192841529846,0
226721,-0.342021465301514,0
226833,-0.340571343898773,0
226942,-0.342021465301514,0
227051,-0.342021465301514,0
227158,-0.341814309358597,0
227267,-0.342850118875504,0
227383,-0.34243580698967,0
227492,-0.340571343898773,0
227598,-0.340985685586929,0
227705,-0.341192841529846,0
227814,-0.34160715341568,0
227926,-0.34243580698967,0
228037,-0.340157032012939,0
228144,-0.340985685586929,0
228251,-0.340985685586929,0
228360,-0.342228621244431,0
228472,-0.34077849984169,0
228582,-0.342228621244431,0
228691,-0.34077849984169,0
228797,-0.341192841529846,0
228906,-0.340364187955856,0
229018,-0.34160715341568,0
229127,-0.34160715341568,0
229237,-0.340985685586929,0
229343,-0.34160715341568,0
229452,-0.34160715341568,0
229564,-0.342021465301514,0
229673,-0.340985685586929,0
229782,-0.34243580698967,0
229892,-0.341192841529846,0
229998,-0.341192841529846,0
230110,-0.342850118875504,0
230219,-0.342228621244431,0
230328,-0.342228621244431,0
230437,-0.342021465301514,0
230544,-0.341192841529846,0
230656,-0.340364187955856,0
230765,-0.34160715341568,0
230874,-0.341814309358597,0
230982,-0.34243580698967,0
231091,-0.342021465301514,0
231202,-0.341399997472763,0
231311,-0.341192841529846,0
231420,-0.342642962932587,0
231527,-0.341814309358597,0
231637,-0.34243580698967,0
231748,-0.341814309358597,0
231857,-0.340985685586929,0
231966,-0.341399997472763,0
232073,-0.340571343898773,0
232184,-0.341399997472763,0
232294,-0.341814309358597,0
232403,-0.34160715341568,0
232512,-0.34305727481842,0
232619,-0.340985685586929,0
232728,-0.34160715341568,0
232843,-0.340985685586929,0
232949,-0.340985685586929,0
233058,-0.341814309358597,0
233165,-0.342021465301514,0
233274,-0.342021465301514,0
233388,-0.342642962932587,0
233495,-0.34243580698967,0
233604,-0.341192841529846,0
233711,-0.341192841529846,0
233820,-0.342228621244431,0
233933,-0.341399997472763,0
234042,-0.342021465301514,0
234150,-0.34160715341568,0
234257,-0.340157032012939,0
234366,-0.340364187955856,0
234478,-0.34077849984169,0
234587,-0.342642962932587,0
234696,-0.34077849984169,0
234803,-0.342228621244431,0
234912,-0.342642962932587,0
235024,-0.342228621244431,0
235133,-0.34077849984169,0
235243,-0.339949876070023,0
235349,-0.340985685586929,0
235458,-0.342021465301514,0
235570,-0.341399997472763,0
235680,-0.341399997472763,0
235788,-0.341192841529846,0
235895,-0.342228621244431,0
236004,-0.341814309358597,0
236116,-0.34243580698967,0
236230,-0.34243580698967,0
236334,-0.34160715341568,0
236441,-0.341814309358597,0
236550,-0.342228621244431,0
236662,-0.34160715341568,0
236772,-0.342021465301514,0
236880,-0.341192841529846,0
236987,-0.340364187955856,0
237096,-0.341814309358597,0
237208,-0.340571343898773,0
237317,-0.342850118875504,0
237429,-0.341814309358597,0
237532,-0.34160715341568,0
237642,-0.341399997472763,0
237754,-0.34160715341568,0
237862,-0.342642962932587,0
237973,-0.342228621244431,0
238080,-0.341192841529846,0
238188,-0.34160715341568,0
238300,-0.34077849984169,0
238408,-0.34243580698967,0
238520,-0.34077849984169,0
238625,-0.34388592839241,0
238734,-0.339742720127106,0
238846,-0.342021465301514,0
238954,-0.340985685586929,0
239064,-0.340571343898773,0
239171,-0.339742720127106,0
239281,-0.341399997472763,0
239392,-0.342228621244431,0
239500,-0.34160715341568,0
239610,-0.342021465301514,0
239716,-0.341399997472763,0
239826,-0.339742720127106,0
239938,-0.340985685586929,0
240046,-0.34160715341568,0
240156,-0.34160715341568,0
240262,-0.34243580698967,0
240373,-0.341814309358597,0
240484,-0.341814309358597,0
240592,-0.340364187955856,0
240699,-0.342021465301514,0
240808,-0.34160715341568,0
240921,-0.340985685586929,0
241031,-0.341192841529846,0
241138,-0.342642962932587,0
241245,-0.341192841529846,0
241354,-0.339535564184189,0
241466,-0.342228621244431,0
241576,-0.34243580698967,0
241684,-0.34243580698967,0
241791,-0.342850118875504,0
241900,-0.342228621244431,0
242012,-0.341399997472763,0
242121,-0.340985685586929,0
242232,-0.341399997472763,0
242337,-0.341399997472763,0
242446,-0.341814309358597,0
242558,-0.34160715341568,0
242667,-0.341399997472763,0
242776,-0.342228621244431,0
242883,-0.342228621244431,0
242992,-0.342228621244431,0
243104,-0.341399997472763,0
243213,-0.340985685586929,0
243324,-0.341814309358597,0
243432,-0.34077849984169,0
243538,-0.34160715341568,0
243650,-0.340985685586929,0
243759,-0.342021465301514,0
243868,-0.341399997472763,0
243976,-0.343264430761337,0
244084,-0.340364187955856,0
244198,-0.342228621244431,0
244305,-0.339121222496033,0
244414,-0.34243580698967,0
244521,-0.342021465301514,0
244631,-0.341814309358597,0
244742,-0.342642962932587,0
244852,-0.341192841529846,0
244961,-0.342021465301514,0
245068,-0.340571343898773,0
245178,-0.339949876070023,0
245289,-0.340364187955856,0
245398,-0.34077849984169,0
245507,-0.342021465301514,0
245614,-0.34305727481842,0
245723,-0.34305727481842,0
245835,-0.342228621244431,0
245944,-0.343471586704254,0
246053,-0.339949876070023,0
246160,-0.341814309358597,0
246269,-0.339949876070023,0
246382,-0.34160715341568,0
246490,-0.34077849984169,0
246599,-0.341814309358597,0
246706,-0.340985685586929,0
246815,-0.341399997472763,0
246928,-0.342642962932587,0
247036,-0.34160715341568,0
247145,-0.34077849984169,0
247252,-0.340985685586929,0
247361,-0.341814309358597,0
247473,-0.339742720127106,0
247584,-0.341192841529846,0
247691,-0.341814309358597,0
247798,-0.341399997472763,0
247907,-0.34243580698967,0
248019,-0.341192841529846,0
248128,-0.341399997472763,0
248237,-0.341814309358597,0
248344,-0.34243580698967,0
248453,-0.340364187955856,0
248565,-0.34160715341568,0
248675,-0.34160715341568,0
248783,-0.343264430761337,0
248890,-0.340571343898773,0
248999,-0.341192841529846,0
249111,-0.339535564184189,0
249220,-0.34305727481842,0
249333,-0.341814309358597,0
249436,-0.342850118875504,0
249545,-0.341399997472763,0
249657,-0.342642962932587,0
249766,-0.340364187955856,0
249876,-0.34305727481842,0
249983,-0.340364187955856,0
250091,-0.34305727481842,0
250203,-0.342021465301514,0
250312,-0.340571343898773,0
250424,-0.341192841529846,0
250533,-0.339742720127106,0
250637,-0.34077849984169,0
250749,-0.341399997472763,0
250858,-0.341399997472763,0
250967,-0.341814309358597,0
251075,-0.34305727481842,0
251183,-0.342228621244431,0
251295,-0.34243580698967,0
251404,-0.342021465301514,0
251513,-0.34160715341568,0
251623,-0.34160715341568,0
251733,-0.341814309358597,0
251841,-0.341814309358597,0
251950,-0.341192841529846,0
252059,-0.342021465301514,0
252166,-0.34243580698967,0
252275,-0.34160715341568,0
252387,-0.340157032012939,0
252496,-0.340985685586929,0
252605,-0.342021465301514,0
252712,-0.342642962932587,0
252823,-0.34243580698967,0
252933,-0.34160715341568,0
253042,-0.341399997472763,0
253151,-0.341399997472763,0
253257,-0.340985685586929,0
253367,-0.340985685586929,0
253477,-0.342642962932587,0
253587,-0.34160715341568,0
253698,-0.341814309358597,0
253805,-0.342642962932587,0
253913,-0.339742720127106,0
254026,-0.342228621244431,0
254133,-0.340364187955856,0
254243,-0.340985685586929,0
254349,-0.340364187955856,0
254459,-0.342021465301514,0
254573,-0.341814309358597,0
254683,-0.342021465301514,0
254789,-0.342228621244431,0
254895,-0.340985685586929,0
255005,-0.34077849984169,0
255117,-0.340985685586929,0
255225,-0.341814309358597,0
255335,-0.34305727481842,0
255441,-0.342642962932587,0
255551,-0.341399997472763,0
255663,-0.339949876070023,0
255773,-0.342021465301514,0
255884,-0.339742720127106,0
255987,-0.341192841529846,0
256097,-0.341192841529846,0
256209,-0.341814309358597,0
256317,-0.342850118875504,0
256428,-0.34305727481842,0
256533,-0.341399997472763,0
256643,-0.34160715341568,0
256755,-0.341399997472763,0
256863,-0.342642962932587,0
256973,-0.34160715341568,0
257083,-0.342021465301514,0
257188,-0.342642962932587,0
257300,-0.34305727481842,0
257409,-0.34243580698967,0
257518,-0.34077849984169,0
257625,-0.342021465301514,0
257734,-0.34077849984169,0
257846,-0.341399997472763,0
257955,-0.34243580698967,0
258064,-0.341814309358597,0
258173,-0.34160715341568,0
258282,-0.341399997472763,0
258392,-0.342642962932587,0
258501,-0.341814309358597,0
258610,-0.342850118875504,0
258717,-0.340985685586929,0
258828,-0.342021465301514,0
258938,-0.340985685586929,0
259047,-0.341814309358597,0
259156,-0.340985685586929,0
259263,-0.34077849984169,0
259373,-0.340364187955856,0
259484,-0.340364187955856,0
259593,-0.342228621244431,0
259702,-0.341399997472763,0
259809,-0.341814309358597,0
259918,-0.342021465301514,0
260034,-0.341399997472763,0
260139,-0.340571343898773,0
260248,-0.341814309358597,0
260355,-0.342021465301514,0
260464,-0.344300240278244,0
260574,-0.340157032012939,0
260685,-0.341814309358597,0
260794,-0.341192841529846,0
260901,-0.342228621244431,0
261010,-0.34077849984169,0
261124,-0.342228621244431,0
261235,-0.341814309358597,0
261340,-0.340985685586929,0
261447,-0.340985685586929,0
261556,-0.342021465301514,0
261668,-0.340571343898773,0
261779,-0.340985685586929,0
261886,-0.34160715341568,0
261993,-0.341814309358597,0
262102,-0.341192841529846,0
262214,-0.341814309358597,0
262325,-0.341814309358597,0
262434,-0.343471586704254,0
262540,-0.340985685586929,0
262649,-0.341399997472763,0
262761,-0.34160715341568,0
262870,-0.341399997472763,0
262981,-0.340364187955856,0
263086,-0.342228621244431,0
263195,-0.341399997472763,0
263307,-0.340157032012939,0
263416,-0.341814309358597,0
263525,-0.34077849984169,0
263636,-0.34160715341568,0
263741,-0.340364187955856,0
263853,-0.339949876070023,0
263962,-0.341399997472763,0
264071,-0.34243580698967,0
264180,-0.341814309358597,0
264287,-0.34160715341568,0
264399,-0.340985685586929,0
264508,-0.342021465301514,0
264617,-0.342021465301514,0
264725,-0.342021465301514,0
264835,-0.341192841529846,0
264945,-0.341192841529846,0
265054,-0.34160715341568,0
265163,-0.340985685586929,0
265270,-0.340364187955856,0
265380,-0.34243580698967,0
265491,-0.340985685586929,0
265600,-0.343264430761337,0
265709,-0.339949876070023,0
265816,-0.34243580698967,0
265927,-0.339742720127106,0
266037,-0.341192841529846,0
266146,-0.341399997472763,0
266255,-0.342228621244431,0
266362,-0.342021465301514,0
266471,-0.34160715341568,0
266584,-0.342021465301514,0
266692,-0.340157032012939,0
266801,-0.34160715341568,0
266908,-0.341814309358597,0
267017,-0.34160715341568,0
267130,-0.341399997472763,0
267238,-0.341814309358597,0
267347,-0.34160715341568,0
267454,-0.340157032012939,0
267563,-0.341814309358597,0
267672,-0.34160715341568,0
267785,-0.343471586704254,0
267893,-0.34077849984169,0
268000,-0.34243580698967,0
268109,-0.340985685586929,0
268221,-0.341399997472763,0
268330,-0.342850118875504,0
268439,-0.340985685586929,0
268546,-0.342850118875504,0
268655,-0.339949876070023,0
268767,-0.34160715341568,0
268878,-0.34077849984169,0
268987,-0.342850118875504,0
269092,-0.341192841529846,0
269201,-0.341399997472763,0
269313,-0.342642962932587,0
269422,-0.342228621244431,0
269534,-0.341399997472763,0
269638,-0.340364187955856,0
269747,-0.340985685586929,0
269859,-0.341814309358597,0
269968,-0.341399997472763,0
270077,-0.34160715341568,0
270184,-0.340364187955856,0
270293,-0.342228621244431,0
270405,-0.34160715341568,0
270514,-0.342642962932587,0
270625,-0.341399997472763,0
270730,-0.340571343898773,0
270839,-0.341814309358597,0
270952,-0.341814309358597,0
271060,-0.34160715341568,0
271169,-0.343678742647171,0
271277,-0.341399997472763,0
271385,-0.342021465301514,0
271497,-0.34160715341568,0
271606,-0.340985685586929,0
271715,-0.342850118875504,0
271822,-0.34160715341568,0
271935,-0.34305727481842,0
272042,-0.34160715341568,0
272152,-0.342021465301514,0
272258,-0.340364187955856,0
272368,-0.342850118875504,0
272482,-0.34077849984169,0
272588,-0.341814309358597,0
272698,-0.34243580698967,0
272804,-0.34160715341568,0
272913,-0.341814309358597,0
273027,-0.342021465301514,0
273137,-0.342642962932587,0
273243,-0.341814309358597,0
273350,-0.34160715341568,0
273459,-0.341814309358597,0
273571,-0.341814309358597,0
273682,-0.341814309358597,0
273789,-0.342228621244431,0
273896,-0.34160715341568,0
274005,-0.34077849984169,0
274117,-0.340571343898773,0
274227,-0.34305727481842,0
274338,-0.341192841529846,0
274442,-0.341814309358597,0
274551,-0.34077849984169,0
274663,-0.341814309358597,0
274770,-0.341399997472763,0
274882,-0.341192841529846,0
274988,-0.340364187955856,0
275097,-0.34077849984169,0
275209,-0.342228621244431,0
275318,-0.341814309358597,0
275427,-0.341814309358597,0
275537,-0.34160715341568,0
275643,-0.34160715341568,0
275755,-0.341399997472763,0
275864,-0.341192841529846,0
275973,-0.340364187955856,0
276082,-0.34160715341568,0
276189,-0.34160715341568,0
276301,-0.341192841529846,0
276410,-0.342021465301514,0
276519,-0.34077849984169,0
276628,-0.342228621244431,0
276737,-0.341399997472763,0
276847,-0.342642962932587,0
276956,-0.342642962932587,0
277065,-0.341192841529846,0
277172,-0.344300240278244,0
277282,-0.341399997472763,0
277393,-0.34243580698967,0
277502,-0.341399997472763,0
277611,-0.34077849984169,0
277718,-0.34077849984169,0
277827,-0.34160715341568,0
277939,-0.340985685586929,0
278048,-0.342021465301514,0
278157,-0.342021465301514,0
278264,-0.341192841529846,0
278373,-0.341192841529846,0
278485,-0.341399997472763,0
278594,-0.341814309358597,0
278703,-0.342021465301514,0
278810,-0.341399997472763,0
278919,-0.340985685586929,0
279033,-0.340364187955856,0
279140,-0.342850118875504,0
279249,-0.341192841529846,0
279356,-0.342228621244431,0
279465,-0.342228621244431,0
279577,-0.342021465301514,0
279690,-0.34160715341568,0
279796,-0.34160715341568,0
279903,-0.341192841529846,0
280012,-0.340571343898773,0
280124,-0.342021465301514,0
280234,-0.342228621244431,0
280342,-0.342021465301514,0
280449,-0.34077849984169,0
280558,-0.342021465301514,0
280670,-0.341814309358597,0
280781,-0.341192841529846,0
280891,-0.340985685586929,0
280995,-0.342228621244431,0
281129,-0.341192841529846,0
281216,-0.34160715341568,0
281325,-0.343264430761337,0
281435,-0.341399997472763,0
281542,-0.341814309358597,0
281650,-0.342021465301514,0
281762,-0.34160715341568,0
281868,-0.341399997472763,0
281982,-0.341192841529846,0
282087,-0.342228621244431,0
282196,-0.342642962932587,0
282308,-0.34160715341568,0
282417,-0.340985685586929,0
282526,-0.341814309358597,0
282634,-0.341192841529846,0
282742,-0.341814309358597,0
282854,-0.341399997472763,0
282963,-0.342228621244431,0
283072,-0.34160715341568,0
283179,-0.34077849984169,0
283292,-0.342021465301514,0
283400,-0.340157032012939,0
283509,-0.340571343898773,0
283618,-0.341399997472763,0
283725,-0.341192841529846,0
283834,-0.34077849984169,0
283946,-0.341399997472763,0
284055,-0.340985685586929,0
284164,-0.340985685586929,0
284271,-0.34160715341568,0
284382,-0.342642962932587,0
284492,-0.341399997472763,0
284601,-0.34077849984169,0
284710,-0.341814309358597,0
284817,-0.342228621244431,0
284926,-0.342228621244431,0
285041,-0.341192841529846,0
285147,-0.341399997472763,0
285256,-0.340985685586929,0
285363,-0.341399997472763,0
285472,-0.340985685586929,0
285584,-0.34077849984169,0
285693,-0.342021465301514,0
285802,-0.342642962932587,0
285909,-0.34160715341568,0
286018,-0.341192841529846,0
286130,-0.341399997472763,0
286243,-0.34077849984169,0
286348,-0.341192841529846,0
286456,-0.34305727481842,0
286564,-0.341399997472763,0
286676,-0.34243580698967,0
286785,-0.342021465301514,0
286894,-0.342228621244431,0
287001,-0.342228621244431,0
287110,-0.341399997472763,0
287222,-0.341192841529846,0
287331,-0.341192841529846,0
287443,-0.34160715341568,0
287547,-0.34243580698967,0
287656,-0.340985685586929,0
287768,-0.342228621244431,0
287877,-0.340985685586929,0
287986,-0.341814309358597,0
288095,-0.341399997472763,0
288202,-0.341192841529846,0
288314,-0.341192841529846,0
288423,-0.34077849984169,0
288534,-0.342228621244431,0
288639,-0.341399997472763,0
288748,-0.342228621244431,0
288860,-0.341192841529846,0
288966,-0.34160715341568,0
289078,-0.341814309358597,0
289184,-0.342228621244431,0
289294,-0.34160715341568,0
289406,-0.34243580698967,0
289514,-0.341399997472763,0
289624,-0.343471586704254,0
289730,-0.340571343898773,0
289844,-0.342021465301514,0
289952,-0.34160715341568,0
290060,-0.341814309358597,0
290170,-0.34077849984169,0
290276,-0.34160715341568,0
290386,-0.341399997472763,0
290498,-0.34160715341568,0
290606,-0.342642962932587,0
290716,-0.340571343898773,0
290822,-0.34160715341568,0
290934,-0.341192841529846,0
291044,-0.34243580698967,0
291152,-0.340985685586929,0
291262,-0.341399997472763,0
291368,-0.340985685586929,0
291478,-0.340985685586929,0
291593,-0.340364187955856,0
291698,-0.34077849984169,0
291808,-0.341814309358597,0
291914,-0.341814309358597,0
292024,-0.341399997472763,0
292137,-0.342021465301514,0
292244,-0.341814309358597,0
292354,-0.34160715341568,0
292460,-0.341814309358597,0
292569,-0.34243580698967,0
292681,-0.340157032012939,0
292793,-0.340985685586929,0
292899,-0.342642962932587,0
293006,-0.342021465301514,0
293115,-0.342228621244431,0
293227,-0.341814309358597,0
293336,-0.342228621244431,0
293445,-0.342642962932587,0
293552,-0.341192841529846,0
293661,-0.342021465301514,0
293773,-0.34077849984169,0
293882,-0.341814309358597,0
293995,-0.341399997472763,0
294098,-0.341399997472763,0
294207,-0.341192841529846,0
294319,-0.34077849984169,0
294428,-0.342228621244431,0
294541,-0.342228621244431,0
294645,-0.342642962932587,0
294753,-0.342642962932587,0
294865,-0.341814309358597,0
294974,-0.341399997472763,0
295083,-0.341814309358597,0
295191,-0.341399997472763,0
295299,-0.342228621244431,0
295411,-0.34160715341568,0
295520,-0.342021465301514,0
295629,-0.342642962932587,0
295736,-0.341814309358597,0
295846,-0.341814309358597,0
295957,-0.340571343898773,0
296064,-0.34243580698967,0
296175,-0.342642962932587,0
296282,-0.341192841529846,0
296392,-0.342228621244431,0
296503,-0.34077849984169,0
296612,-0.341192841529846,0
296721,-0.342021465301514,0
296828,-0.342642962932587,0
296937,-0.342228621244431,0
297049,-0.34305727481842,0
297158,-0.341399997472763,0
297268,-0.34077849984169,0
297375,-0.340985685586929,0
297484,-0.34160715341568,0
297597,-0.34160715341568,0
297706,-0.340571343898773,0
297814,-0.341192841529846,0
297921,-0.341814309358597,0
298030,-0.341399997472763,0
298143,-0.341814309358597,0
298251,-0.341399997472763,0
298360,-0.34077849984169,0
298467,-0.341814309358597,0
298576,-0.342642962932587,0
298688,-0.342021465301514,0
298797,-0.342228621244431,0
298906,-0.34077849984169,0
299013,-0.341814309358597,0
299122,-0.341814309358597,0
299234,-0.34077849984169,0
299343,-0.341814309358597,0
299452,-0.34160715341568,0
299559,-0.342021465301514,0
299668,-0.341399997472763,0
299780,-0.342642962932587,0
299891,-0.342021465301514,0
299998,-0.34243580698967,0
300105,-0.343264430761337,0
300214,-0.340157032012939,0
300326,-0.340364187955856,0
300435,-0.340364187955856,0
300547,-0.343264430761337,0
300651,-0.34160715341568,0
300760,-0.342228621244431,0
300872,-0.342228621244431,0
300981,-0.341399997472763,0
301090,-0.342021465301514,0
301197,-0.340364187955856,0
301306,-0.341192841529846,0
301418,-0.341192841529846,0
301527,-0.340571343898773,0
301638,-0.34243580698967,0
301743,-0.34077849984169,0
301852,-0.340985685586929,0
301964,-0.341814309358597,0
302073,-0.342021465301514,0
302182,-0.341192841529846,0
302291,-0.341399997472763,0
302398,-0.342642962932587,0
302510,-0.34305727481842,0
302619,-0.342228621244431,0
302728,-0.342021465301514,0
302835,-0.341192841529846,0
302949,-0.342228621244431,0
303056,-0.341399997472763,0
303162,-0.342850118875504,0
303272,-0.342021465301514,0
303381,-0.342228621244431,0
303497,-0.342228621244431,0
303602,-0.34077849984169,0
303711,-0.340364187955856,0
303818,-0.342021465301514,0
303927,-0.339742720127106,0
304040,-0.34160715341568,0
304148,-0.342228621244431,0
304257,-0.341192841529846,0
304363,-0.340985685586929,0
304474,-0.341192841529846,0
304583,-0.34160715341568,0
304697,-0.342850118875504,0
304803,-0.34077849984169,0
304909,-0.340364187955856,0
305019,-0.339949876070023,0
305131,-0.34160715341568,0
305241,-0.342021465301514,0
305349,-0.341399997472763,0
305455,-0.342021465301514,0
305565,-0.342021465301514,0
305677,-0.342228621244431,0
305785,-0.342021465301514,0
305897,-0.341399997472763,0
306001,-0.341814309358597,0
306111,-0.34160715341568,0
306223,-0.340985685586929,0
306331,-0.341814309358597,0
306443,-0.34160715341568,0
306548,-0.342642962932587,0
306657,-0.341192841529846,0
306769,-0.342228621244431,0
306877,-0.340985685586929,0
306988,-0.340364187955856,0
307097,-0.34160715341568,0
307203,-0.34160715341568,0
307315,-0.341192841529846,0
307423,-0.342021465301514,0
307533,-0.343471586704254,0
307640,-0.341399997472763,0
307749,-0.341399997472763,0
307861,-0.341814309358597,0
307969,-0.341399997472763,0
308079,-0.34160715341568,0
308185,-0.341814309358597,0
308298,-0.342021465301514,0
308406,-0.342021465301514,0
308515,-0.34160715341568,0
308624,-0.340157032012939,0
308731,-0.34243580698967,0
308841,-0.340985685586929,0
308952,-0.342642962932587,0
309061,-0.341399997472763,0
309170,-0.34243580698967,0
309277,-0.341814309358597,0
309389,-0.341399997472763,0
309498,-0.340985685586929,0
309607,-0.342021465301514,0
309716,-0.34160715341568,0
309823,-0.340985685586929,0
309932,-0.339742720127106,0
310048,-0.342642962932587,0
310153,-0.342850118875504,0
310260,-0.34243580698967,0
310374,-0.341399997472763,0
310478,-0.341192841529846,0
310590,-0.341192841529846,0
310699,-0.34077849984169,0
310808,-0.34160715341568,0
310915,-0.342021465301514,0
311024,-0.341192841529846,0
311138,-0.34077849984169,0
311248,-0.341192841529846,0
311354,-0.340985685586929,0
311461,-0.34305727481842,0
311570,-0.341399997472763,0
311682,-0.342850118875504,0
311793,-0.34160715341568,0
311900,-0.34243580698967,0
312007,-0.341814309358597,0
312116,-0.34160715341568,0
312228,-0.341399997472763,0
312338,-0.342850118875504,0
312448,-0.34243580698967,0
312553,-0.341192841529846,0
312662,-0.34160715341568,0
312774,-0.341814309358597,0
312883,-0.340364187955856,0
312993,-0.342021465301514,0
313099,-0.340364187955856,0
313208,-0.342228621244431,0
313320,-0.34160715341568,0
313429,-0.342642962932587,0
313538,-0.34077849984169,0
313647,-0.34160715341568,0
313754,-0.34077849984169,0
313866,-0.342021465301514,0
313975,-0.341814309358597,0
314084,-0.342850118875504,0
314194,-0.342021465301514,0
314300,-0.341814309358597,0
314412,-0.342021465301514,0
314521,-0.340364187955856,0
314630,-0.34160715341568,0
314739,-0.34077849984169,0
314849,-0.341192841529846,0
314959,-0.342021465301514,0
315068,-0.341814309358597,0
315177,-0.341814309358597,0
315284,-0.342021465301514,0
315394,-0.341399997472763,0
315505,-0.341814309358597,0
315614,-0.340571343898773,0
315723,-0.341814309358597,0
315830,-0.341399997472763,0
315939,-0.341399997472763,0
316051,-0.34077849984169,0
316160,-0.34077849984169,0
316269,-0.341192841529846,0
316376,-0.341814309358597,0
316485,-0.342228621244431,0
316598,-0.341192841529846,0
316706,-0.34243580698967,0
316815,-0.342228621244431,0
316922,-0.34160715341568,0
317031,-0.341192841529846,0
317144,-0.34160715341568,0
317252,-0.341192841529846,0
317359,-0.341399997472763,0
317468,-0.34077849984169,0
317577,-0.340985685586929,0
317691,-0.342228621244431,0
317801,-0.34243580698967,0
317907,-0.341192841529846,0
318014,-0.342021465301514,0
318123,-0.341814309358597,0
318233,-0.342228621244431,0
318344,-0.340157032012939,0
318453,-0.342021465301514,0
318560,-0.342228621244431,0
318669,-0.341192841529846,0
318781,-0.34160715341568,0
318891,-0.34160715341568,0
319001,-0.341192841529846,0
319106,-0.340571343898773,0
319215,-0.342021465301514,0
319327,-0.341814309358597,0
319436,-0.341192841529846,0
319546,-0.34077849984169,0
319652,-0.34160715341568,0
319761,-0.34160715341568,0
319873,-0.34160715341568,0
319982,-0.340364187955856,0
320091,-0.34160715341568,0
320200,-0.342642962932587,0
320307,-0.342021465301514,0
320419,-0.342642962932587,0
320528,-0.34243580698967,0
320637,-0.34160715341568,0
320744,-0.34077849984169,0
320853,-0.341399997472763,0
320965,-0.341399997472763,0
321074,-0.34160715341568,0
321183,-0.341399997472763,0
321292,-0.341814309358597,0
321402,-0.341399997472763,0
321511,-0.342228621244431,0
321620,-0.341399997472763,0
321729,-0.341814309358597,0
321836,-0.34077849984169,0
321947,-0.341814309358597,0
322057,-0.340985685586929,0
322166,-0.341814309358597,0
322275,-0.341814309358597,0
322382,-0.34243580698967,0
322492,-0.341399997472763,0
322603,-0.341192841529846,0
322712,-0.342228621244431,0
322821,-0.342850118875504,0
322928,-0.34243580698967,0
323037,-0.341814309358597,0
323152,-0.34160715341568,0
323258,-0.342228621244431,0
323367,-0.342021465301514,0
323474,-0.342228621244431,0
323583,-0.341814309358597,0
323697,-0.34160715341568,0
323804,-0.34160715341568,0
323913,-0.34160715341568,0
324019,-0.342228621244431,0
324129,-0.341399997472763,0
324242,-0.341814309358597,0
324352,-0.341192841529846,0
324457,-0.341399997472763,0
324565,-0.34077849984169,0
324675,-0.342228621244431,0
324787,-0.34077849984169,0
324897,-0.34243580698967,0
325005,-0.342021465301514,0
325111,-0.34160715341568,0
325221,-0.341399997472763,0
325333,-0.342850118875504,0
325442,-0.342021465301514,0
325552,-0.34243580698967,0
325657,-0.34160715341568,0
325767,-0.342642962932587,0
325879,-0.34077849984169,0
325987,-0.342642962932587,0
326097,-0.341192841529846,0
326203,-0.344093084335327,0
326313,-0.33932837843895,0
326425,-0.34160715341568,0
326533,-0.340157032012939,0
326644,-0.342228621244431,0
326752,-0.34305727481842,0
326859,-0.342850118875504,0
326971,-0.340571343898773,0
327079,-0.341399997472763,0
327189,-0.34160715341568,0
327296,-0.342021465301514,0
327405,-0.340364187955856,0
327517,-0.342021465301514,0
327625,-0.341192841529846,0
327735,-0.342021465301514,0
327842,-0.34243580698967,0
327952,-0.341399997472763,0
328062,-0.339742720127106,0
328171,-0.341814309358597,0
328280,-0.341814309358597,0
328387,-0.342850118875504,0
328497,-0.341192841529846,0
328611,-0.341399997472763,0
328717,-0.34077849984169,0
328826,-0.342021465301514,0
328933,-0.341399997472763,0
329042,-0.342228621244431,0
329154,-0.342021465301514,0
329263,-0.34243580698967,0
329372,-0.341192841529846,0
329479,-0.341814309358597,0
329588,-0.341399997472763,0
329703,-0.34243580698967,0
329809,-0.342021465301514,0
329918,-0.34160715341568,0
330025,-0.341399997472763,0
330134,-0.342850118875504,0
330246,-0.340571343898773,0
330355,-0.34243580698967,0
330464,-0.340985685586929,0
330573,-0.342228621244431,0
330680,-0.340985685586929,0
330792,-0.340571343898773,0
330902,-0.342850118875504,0
331011,-0.341399997472763,0
331117,-0.341192841529846,0
331226,-0.34160715341568,0
331338,-0.343264430761337,0
331447,-0.34160715341568,0
331554,-0.341399997472763,0
331663,-0.34077849984169,0
331772,-0.340364187955856,0
331990,-0.341192841529846,0
332086,-0.341814309358597,0
332200,-0.342021465301514,0
332306,-0.34243580698967,0
332415,-0.341399997472763,0
332522,-0.34243580698967,0
332631,-0.341192841529846,0
332745,-0.341399997472763,0
332852,-0.34077849984169,0
332961,-0.34077849984169,0
333068,-0.342228621244431,0
333177,-0.342642962932587,0
333291,-0.343678742647171,0
333401,-0.341399997472763,0
333507,-0.341814309358597,0
333614,-0.341192841529846,0
333723,-0.34160715341568,0
333835,-0.340985685586929,0
333946,-0.342228621244431,0
334053,-0.342642962932587,0
334160,-0.341192841529846,0
334272,-0.34243580698967,0
334381,-0.342021465301514,0
334491,-0.340157032012939,0
334600,-0.341814309358597,0
334706,-0.339742720127106,0
334818,-0.341192841529846,0
334927,-0.342228621244431,0
335036,-0.343471586704254,0
335143,-0.341399997472763,0
335252,-0.342228621244431,0
335364,-0.340985685586929,0
335473,-0.340985685586929,0
335582,-0.34077849984169,0
335691,-0.342642962932587,0
335800,-0.341399997472763,0
335910,-0.342021465301514,0
336019,-0.341399997472763,0
336128,-0.342021465301514,0
336235,-0.341192841529846,0
336346,-0.342021465301514,0
336456,-0.342642962932587,0
336565,-0.341192841529846,0
336674,-0.341399997472763,0
336781,-0.341814309358597,0
336891,-0.34077849984169,0
337002,-0.341192841529846,0
337111,-0.34160715341568,0
337220,-0.34243580698967,0
337327,-0.340571343898773,0
337436,-0.34243580698967,0
337550,-0.34388592839241,0
337657,-0.34077849984169,0
337766,-0.34243580698967,0
337873,-0.34160715341568,0
337982,-0.34077849984169,0
338096,-0.341192841529846,0
338203,-0.342021465301514,0
338312,-0.34243580698967,0
338419,-0.341399997472763,0
338528,-0.34160715341568,0
338641,-0.33932837843895,0
338751,-0.340157032012939,0
338858,-0.340985685586929,0
338965,-0.340571343898773,0
339074,-0.340571343898773,0
339186,-0.340985685586929,0
339295,-0.342642962932587,0
339404,-0.342850118875504,0
339511,-0.342021465301514,0
339620,-0.341399997472763,0
339732,-0.341814309358597,0
339841,-0.34160715341568,0
339951,-0.34160715341568,0
340056,-0.34160715341568,0
340166,-0.34243580698967,0
340278,-0.341399997472763,0
340386,-0.342642962932587,0
340500,-0.342228621244431,0
340602,-0.341399997472763,0
340712,-0.34160715341568,0
340824,-0.34077849984169,0
340932,-0.340985685586929,0
341043,-0.342021465301514,0
341150,-0.341814309358597,0
341258,-0.341814309358597,0
341370,-0.341814309358597,0
341478,-0.342021465301514,0
341588,-0.34160715341568,0
341695,-0.34077849984169,0
341804,-0.340571343898773,0
341916,-0.341192841529846,0
342024,-0.341192841529846,0
342134,-0.341399997472763,0
342241,-0.342850118875504,0
342350,-0.341814309358597,0
342462,-0.34160715341568,0
342570,-0.342642962932587,0
342680,-0.341192841529846,0
342786,-0.341192841529846,0
342896,-0.34160715341568,0
343008,-0.341399997472763,0
343116,-0.341399997472763,0
343226,-0.341399997472763,0
343332,-0.342850118875504,0
343443,-0.34243580698967,0
343554,-0.34077849984169,0
343662,-0.342021465301514,0
343771,-0.342021465301514,0
343878,-0.342021465301514,0
343987,-0.342021465301514,0
344100,-0.34160715341568,0
344208,-0.342642962932587,0
344317,-0.34243580698967,0
344424,-0.342021465301514,0
344533,-0.34160715341568,0
344646,-0.342228621244431,0
344754,-0.341399997472763,0
344863,-0.341399997472763,0
344970,-0.34243580698967,0
345079,-0.341399997472763,0
345192,-0.342021465301514,0
345301,-0.341814309358597,0
345409,-0.342021465301514,0
345516,-0.340364187955856,0
345625,-0.34160715341568,0
345737,-0.341192841529846,0
345847,-0.341814309358597,0
345955,-0.342642962932587,0
346062,-0.342228621244431,0
346171,-0.34160715341568,0
346283,-0.342021465301514,0
346392,-0.342228621244431,0
346501,-0.341399997472763,0
346608,-0.342021465301514,0
346717,-0.34243580698967,0
346828,-0.34160715341568,0
346938,-0.342642962932587,0
347051,-0.34160715341568,0
347154,-0.343264430761337,0
347263,-0.341399997472763,0
347375,-0.341814309358597,0
347484,-0.341399997472763,0
347593,-0.341192841529846,0
347700,-0.342228621244431,0
347809,-0.341814309358597,0
347921,-0.34160715341568,0
348030,-0.34077849984169,0
348139,-0.340157032012939,0
348246,-0.341399997472763,0
348355,-0.341814309358597,0
348467,-0.34243580698967,0
348576,-0.342228621244431,0
348685,-0.342228621244431,0
348792,-0.342021465301514,0
348901,-0.340985685586929,0
349013,-0.341192841529846,0
349122,-0.342021465301514,0
349229,-0.341399997472763,0
349338,-0.340985685586929,0
349447,-0.342850118875504,0
349559,-0.341814309358597,0
349668,-0.342228621244431,0
349778,-0.34160715341568,0
349885,-0.341814309358597,0
349994,-0.34160715341568,0
350106,-0.34243580698967,0
350215,-0.34305727481842,0
350324,-0.34160715341568,0
350431,-0.339949876070023,0
350540,-0.341814309358597,0
350652,-0.34077849984169,0
350761,-0.34077849984169,0
350870,-0.342021465301514,0
350977,-0.34160715341568,0
351086,-0.34160715341568,0
351198,-0.342228621244431,0
351307,-0.341399997472763,0
351416,-0.342021465301514,0
351523,-0.342021465301514,0
351632,-0.340364187955856,0
351744,-0.342021465301514,0
351853,-0.34160715341568,0
351962,-0.342228621244431,0
352069,-0.342642962932587,0
352178,-0.34305727481842,0
352290,-0.341399997472763,0
352399,-0.340571343898773,0
352508,-0.34243580698967,0
352615,-0.341399997472763,0
352724,-0.34243580698967,0
352836,-0.341814309358597,0
352945,-0.342850118875504,0
353054,-0.340571343898773,0
353161,-0.341399997472763,0
353270,-0.34160715341568,0
353382,-0.340985685586929,0
353491,-0.341192841529846,0
353600,-0.341192841529846,0
353707,-0.342228621244431,0
353816,-0.341192841529846,0
353928,-0.342228621244431,0
354037,-0.340364187955856,0
354146,-0.34077849984169,0
354253,-0.34160715341568,0
354362,-0.34160715341568,0
354474,-0.342021465301514,0
354583,-0.341192841529846,0
354692,-0.341814309358597,0
354799,-0.342228621244431,0
354908,-0.34077849984169,0
355020,-0.34160715341568,0
355129,-0.341192841529846,0
355238,-0.34077849984169,0
355346,-0.340985685586929,0
355455,-0.342021465301514,0
355566,-0.342021465301514,0
355675,-0.34243580698967,0
355784,-0.341192841529846,0
355891,-0.341192841529846,0
356000,-0.342021465301514,0
356112,-0.34077849984169,0
356221,-0.342642962932587,0
356330,-0.342642962932587,0
356437,-0.341192841529846,0
356546,-0.342021465301514,0
356658,-0.339949876070023,0
356767,-0.34160715341568,0
356876,-0.342642962932587,0
356983,-0.34305727481842,0
357092,-0.341192841529846,0
357204,-0.340985685586929,0
357313,-0.342228621244431,0
357422,-0.342642962932587,0
357529,-0.342228621244431,0
357638,-0.342021465301514,0
357750,-0.342228621244431,0
357859,-0.341814309358597,0
357968,-0.342642962932587,0
358075,-0.342850118875504,0
358184,-0.342021465301514,0
358296,-0.34077849984169,0
358405,-0.341399997472763,0
358514,-0.342228621244431,0
358621,-0.341814309358597,0
358730,-0.341814309358597,0
358842,-0.342228621244431,0
358951,-0.34243580698967,0
359060,-0.341814309358597,0
359167,-0.340985685586929,0
359276,-0.341814309358597,0
359388,-0.341399997472763,0
359496,-0.340985685586929,0
359606,-0.342850118875504,0
359712,-0.342228621244431,0
359822,-0.34243580698967,0
359931,-0.341399997472763,0
360042,-0.34160715341568,0
360152,-0.340985685586929,0
360258,-0.340985685586929,0
360368,-0.340985685586929,0
360480,-0.342228621244431,0
360588,-0.341814309358597,0
360698,-0.342228621244431,0
360804,-0.340985685586929,0
360914,-0.340985685586929,0
361026,-0.342021465301514,0
361134,-0.341814309358597,0
361242,-0.342850118875504,0
361351,-0.340985685586929,0
361460,-0.341399997472763,0
361574,-0.341399997472763,0
361680,-0.341399997472763,0
361791,-0.341399997472763,0
361896,-0.342228621244431,0
362006,-0.342228621244431,0
362118,-0.34160715341568,0
362226,-0.340985685586929,0
362336,-0.34160715341568,0
362442,-0.342228621244431,0
362552,-0.342228621244431,0
362664,-0.341399997472763,0
362772,-0.341399997472763,0
362882,-0.342021465301514,0
362988,-0.34243580698967,0
363098,-0.341814309358597,0
363210,-0.340985685586929,0
363318,-0.340985685586929,0
363427,-0.34077849984169,0
363534,-0.342021465301514,0
363643,-0.340985685586929,0
363755,-0.34243580698967,0
363864,-0.341399997472763,0
363973,-0.342850118875504,0
364080,-0.34305727481842,0
364189,-0.34160715341568,0
364301,-0.34077849984169,0
364410,-0.340985685586929,0
364519,-0.34077849984169,0
364626,-0.342021465301514,0
364735,-0.34305727481842,0
364847,-0.34077849984169,0
364956,-0.34160715341568,0
365065,-0.342228621244431,0
365172,-0.342021465301514,0
365281,-0.341814309358597,0
365393,-0.341192841529846,0
365502,-0.340364187955856,0
365609,-0.340985685586929,0
365718,-0.341399997472763,0
365830,-0.341399997472763,0
365939,-0.34160715341568,0
366048,-0.34077849984169,0
366155,-0.340985685586929,0
366264,-0.341814309358597,0
366376,-0.341399997472763,0
366485,-0.342642962932587,0
366594,-0.340364187955856,0
366701,-0.34243580698967,0
366810,-0.341192841529846,0
366922,-0.341399997472763,0
367031,-0.341192841529846,0
367140,-0.341814309358597,0
367248,-0.341814309358597,0
367357,-0.343264430761337,0
367469,-0.340571343898773,0
367578,-0.34243580698967,0
367687,-0.340157032012939,0
367794,-0.340364187955856,0
367903,-0.34160715341568,0
368015,-0.342228621244431,0
368124,-0.34160715341568,0
368233,-0.34243580698967,0
368340,-0.342642962932587,0
368449,-0.342228621244431,0
368561,-0.341399997472763,0
368670,-0.341399997472763,0
368779,-0.34160715341568,0
368886,-0.34243580698967,0
368995,-0.341814309358597,0
369107,-0.342228621244431,0
369216,-0.342228621244431,0
369325,-0.342228621244431,0
369432,-0.341399997472763,0
369541,-0.341399997472763,0
369653,-0.34243580698967,0
369762,-0.343471586704254,0
369871,-0.343678742647171,0
369978,-0.34305727481842,0
370087,-0.342228621244431,0
370199,-0.341814309358597,0
370308,-0.34305727481842,0
370417,-0.342021465301514,0
370524,-0.341814309358597,0
370633,-0.340364187955856,0
370745,-0.34077849984169,0
370854,-0.341192841529846,0
370963,-0.342642962932587,0
371070,-0.342228621244431,0
371179,-0.341192841529846,0
371291,-0.341814309358597,0
371400,-0.341192841529846,0
371509,-0.339949876070023,0
371616,-0.342021465301514,0
371725,-0.34160715341568,0
371837,-0.34160715341568,0
371946,-0.341814309358597,0
372055,-0.342021465301514,0
372162,-0.342021465301514,0
372271,-0.342228621244431,0
372383,-0.341814309358597,0
372492,-0.34243580698967,0
372601,-0.342228621244431,0
372708,-0.342021465301514,0
372817,-0.342021465301514,0
372929,-0.341192841529846,0
373038,-0.34243580698967,0
373147,-0.341814309358597,0
373254,-0.342642962932587,0
373363,-0.340571343898773,0
373475,-0.341814309358597,0
373584,-0.341814309358597,0
373693,-0.341814309358597,0
373800,-0.341192841529846,0
373909,-0.342021465301514,0
374021,-0.342021465301514,0
374130,-0.341814309358597,0
374239,-0.340985685586929,0
374346,-0.34160715341568,0
374455,-0.341814309358597,0
374567,-0.342021465301514,0
374676,-0.34243580698967,0
374785,-0.341192841529846,0
374892,-0.34160715341568,0
375001,-0.341399997472763,0
375113,-0.341192841529846,0
375221,-0.340985685586929,0
375331,-0.342642962932587,0
375437,-0.341814309358597,0
375547,-0.342228621244431,0
375659,-0.342228621244431,0
375767,-0.341192841529846,0
375877,-0.341399997472763,0
375983,-0.342021465301514,0
376093,-0.341399997472763,0
376205,-0.342021465301514,0
376313,-0.34077849984169,0
376423,-0.340985685586929,0
376529,-0.342021465301514,0
376639,-0.342228621244431,0
376751,-0.341814309358597,0
376859,-0.342642962932587,0
376969,-0.34243580698967,0
377075,-0.339742720127106,0
377185,-0.342850118875504,0
377297,-0.340364187955856,0
377405,-0.341814309358597,0
377515,-0.342642962932587,0
377621,-0.347200483083725,0
377731,-0.338914066553116,0
377843,-0.34388592839241,0
377951,-0.34160715341568,0
378061,-0.340157032012939,0
378167,-0.338085442781448,0
378277,-0.345543205738068,0
378389,-0.339535564184189,0
378497,-0.344921708106995,0
378607,-0.34243580698967,0
378713,-0.339535564184189,0
378823,-0.341399997472763,0
378935,-0.340364187955856,0
379043,-0.339949876070023,0
379152,-0.34077849984169,0
379259,-0.338914066553116,0
379368,-0.33932837843895,0
379480,-0.340364187955856,0
379589,-0.342021465301514,0
379698,-0.342021465301514,0
379805,-0.342642962932587,0
379914,-0.340985685586929,0
380026,-0.34077849984169,0
380135,-0.34388592839241,0
380244,-0.340985685586929,0
380351,-0.342228621244431,0
380460,-0.341399997472763,0
380572,-0.344714552164078,0
380681,-0.34388592839241,0
380790,-0.343264430761337,0
380897,-0.341399997472763,0
381006,-0.342228621244431,0
381118,-0.341399997472763,0
381227,-0.340157032012939,0
381336,-0.343264430761337,0
381443,-0.340157032012939,0
381552,-0.341192841529846,0
381664,-0.34243580698967,0
381773,-0.34388592839241,0
381882,-0.345543205738068,0
381989,-0.336220979690552,0
382098,-0.335185199975967,0
382210,-0.337049633264542,0
382319,-0.340571343898773,0
382428,-0.343678742647171,0
382535,-0.339535564184189,0
382644,-0.338706910610199,0
382756,-0.333735078573227,0
382865,-0.34160715341568,0
382974,-0.339949876070023,0
383081,-0.341399997472763,0
383190,-0.34160715341568,0
383302,-0.340571343898773,0
383411,-0.340571343898773,0
383520,-0.340985685586929,0
383627,-0.340364187955856,0
383736,-0.342642962932587,0
383848,-0.341814309358597,0
383957,-0.342228621244431,0
384066,-0.341399997472763,0
384173,-0.342642962932587,0
384282,-0.341814309358597,0
384394,-0.34243580698967,0
384503,-0.343471586704254,0
384612,-0.34160715341568,0
384720,-0.340364187955856,0
384829,-0.342228621244431,0
384941,-0.342642962932587,0
385050,-0.34243580698967,0
385159,-0.34160715341568,0
385266,-0.34160715341568,0
385375,-0.342228621244431,0
385487,-0.34160715341568,0
385596,-0.341814309358597,0
385705,-0.341192841529846,0
385812,-0.342021465301514,0
385921,-0.341192841529846,0
386033,-0.342021465301514,0
386142,-0.341399997472763,0
386251,-0.341814309358597,0
386358,-0.341399997472763,0
386467,-0.341814309358597,0
386579,-0.341399997472763,0
386688,-0.340571343898773,0
386797,-0.342850118875504,0
386904,-0.340985685586929,0
387013,-0.34160715341568,0
387125,-0.342021465301514,0
387234,-0.342021465301514,0
387343,-0.340157032012939,0
387450,-0.34160715341568,0
387559,-0.342642962932587,0
387671,-0.343264430761337,0
387780,-0.341814309358597,0
387889,-0.341814309358597,0
387996,-0.340571343898773,0
388105,-0.341814309358597,0
388217,-0.342021465301514,0
388326,-0.34243580698967,0
388435,-0.341399997472763,0
388542,-0.34160715341568,0
388651,-0.341814309358597,0
388763,-0.342021465301514,0
388872,-0.341814309358597,0
388981,-0.341814309358597,0
389088,-0.342228621244431,0
389197,-0.34160715341568,0
389309,-0.340985685586929,0
389418,-0.342642962932587,0
389527,-0.34160715341568,0
389634,-0.34243580698967,0
389743,-0.34243580698967,0
389855,-0.34160715341568,0
389964,-0.340364187955856,0
390073,-0.34243580698967,0
390180,-0.341192841529846,0
390289,-0.341399997472763,0
390403,-0.342228621244431,0
390510,-0.34077849984169,0
390619,-0.341399997472763,0
390726,-0.34160715341568,0
390835,-0.342021465301514,0
390947,-0.340985685586929,0
391056,-0.34160715341568,0
391165,-0.341192841529846,0
391272,-0.341192841529846,0
391381,-0.34077849984169,0
391493,-0.341399997472763,0
391602,-0.341192841529846,0
391711,-0.340985685586929,0
391818,-0.341192841529846,0
391927,-0.342642962932587,0
392039,-0.341814309358597,0
392148,-0.342228621244431,0
392257,-0.341192841529846,0
392364,-0.341399997472763,0
392473,-0.34160715341568,0
392585,-0.34305727481842,0
392694,-0.343264430761337,0
392803,-0.342228621244431,0
392910,-0.342021465301514,0
393019,-0.341399997472763,0
393131,-0.340571343898773,0
393240,-0.34160715341568,0
393349,-0.341192841529846,0
393456,-0.342642962932587,0
393565,-0.342642962932587,0
393677,-0.341399997472763,0
393786,-0.342228621244431,0
393895,-0.34160715341568,0
394002,-0.342228621244431,0
394111,-0.342021465301514,0
394223,-0.34160715341568,0
394332,-0.34243580698967,0
394441,-0.342021465301514,0
394548,-0.342021465301514,0
394657,-0.342021465301514,0
394769,-0.34160715341568,0
394877,-0.34160715341568,0
394987,-0.341192841529846,0
395093,-0.341399997472763,0
395203,-0.342642962932587,0
395315,-0.34160715341568,0
395423,-0.341814309358597,0
395533,-0.342021465301514,0
395639,-0.342021465301514,0
395749,-0.340985685586929,0
395861,-0.340985685586929,0
395969,-0.340571343898773,0
396079,-0.342228621244431,0
396185,-0.343264430761337,0
396295,-0.341814309358597,0
396407,-0.342850118875504,0
396515,-0.342642962932587,0
396622,-0.341192841529846,0
396731,-0.342021465301514,0
396843,-0.34305727481842,0
396952,-0.342228621244431,0
397061,-0.341399997472763,0
397168,-0.341399997472763,0
397277,-0.342228621244431,0
397389,-0.342021465301514,0
397498,-0.342021465301514,0
397607,-0.341399997472763,0
397714,-0.343471586704254,0
397823,-0.34160715341568,0
397935,-0.342850118875504,0
398044,-0.342228621244431,0
398153,-0.342228621244431,0
398260,-0.343264430761337,0
398369,-0.341814309358597,0
398479,-0.340985685586929,0
398590,-0.342850118875504,0
398699,-0.340985685586929,0
398806,-0.340364187955856,0
398915,-0.34160715341568,0
399027,-0.34305727481842,0
399136,-0.34243580698967,0
399245,-0.341399997472763,0
399352,-0.342228621244431,0
399461,-0.342850118875504,0
399573,-0.341399997472763,0
399682,-0.341814309358597,0
399791,-0.341192841529846,0
399898,-0.341399997472763,0
400007,-0.342642962932587,0
400119,-0.342228621244431,0
400228,-0.342021465301514,0
400337,-0.342850118875504,0
400444,-0.340985685586929,0
400553,-0.34305727481842,0
400665,-0.341814309358597,0
400774,-0.341399997472763,0
400883,-0.34160715341568,0
400990,-0.34305727481842,0
401099,-0.341814309358597,0
401211,-0.34160715341568,0
401320,-0.342228621244431,0
401429,-0.34160715341568,0
401536,-0.34160715341568,0
401645,-0.34160715341568,0
401757,-0.342850118875504,0
401866,-0.341192841529846,0
401975,-0.340985685586929,0
402082,-0.342021465301514,0
402192,-0.340571343898773,0
402304,-0.342228621244431,0
402413,-0.342228621244431,0
402522,-0.341814309358597,0
402629,-0.340985685586929,0
402739,-0.34160715341568,0
402850,-0.341399997472763,0
402959,-0.342228621244431,0
403068,-0.341399997472763,0
403175,-0.34077849984169,0
403284,-0.341399997472763,0
403396,-0.341192841529846,0
403505,-0.342021465301514,0
403614,-0.341814309358597,0
403721,-0.341399997472763,0
403830,-0.342642962932587,0
403942,-0.341814309358597,0
404051,-0.340985685586929,0
404160,-0.342850118875504,0
404267,-0.341399997472763,0
404376,-0.342228621244431,0
404488,-0.341192841529846,0
404597,-0.342228621244431,0
404706,-0.341814309358597,0
404813,-0.34077849984169,0
404922,-0.340985685586929,0
405034,-0.341399997472763,0
405143,-0.341192841529846,0
405252,-0.341399997472763,0
405359,-0.342021465301514,0
405468,-0.342228621244431,0
405577,-0.342021465301514,0
405689,-0.34243580698967,0
405798,-0.339742720127106,0
405905,-0.34305727481842,0
406014,-0.34243580698967,0
406126,-0.341192841529846,0
406235,-0.340985685586929,0
406344,-0.342850118875504,0
406451,-0.342850118875504,0
406560,-0.341814309358597,0
406672,-0.342228621244431,0
406781,-0.342021465301514,0
406890,-0.342021465301514,0
406997,-0.341192841529846,0
407106,-0.341399997472763,0
407218,-0.341192841529846,0
407327,-0.341399997472763,0
407436,-0.341814309358597,0
407543,-0.341814309358597,0
407652,-0.342021465301514,0
407764,-0.34077849984169,0
407873,-0.341192841529846,0
407982,-0.34160715341568,0
408089,-0.342021465301514,0
408198,-0.341399997472763,0
408309,-0.342228621244431,0
408419,-0.34160715341568,0
408528,-0.341399997472763,0
408635,-0.34160715341568,0
408744,-0.340364187955856,0
408856,-0.34243580698967,0
408965,-0.342021465301514,0
409074,-0.341399997472763,0
409181,-0.34160715341568,0
409290,-0.341814309358597,0
409402,-0.34160715341568,0
409511,-0.34243580698967,0
409620,-0.342021465301514,0
409727,-0.34160715341568,0
409836,-0.342021465301514,0
409948,-0.340985685586929,0
410057,-0.34077849984169,0
410166,-0.342228621244431,0
410273,-0.34160715341568,0
410382,-0.34243580698967,0
410494,-0.342228621244431,0
410603,-0.342228621244431,0
410712,-0.34243580698967,0
410818,-0.341814309358597,0
410928,-0.342021465301514,0
411040,-0.340985685586929,0
411148,-0.341814309358597,0
411258,-0.341814309358597,0
411364,-0.34243580698967,0
411474,-0.341192841529846,0
411586,-0.342021465301514,0
411694,-0.340985685586929,0
411804,-0.341192841529846,0
411910,-0.341399997472763,0
412020,-0.34077849984169,0
412132,-0.342228621244431,0
412240,-0.339949876070023,0
412350,-0.341814309358597,0
412456,-0.342021465301514,0
412566,-0.34077849984169,0
412675,-0.340571343898773,0
412786,-0.34160715341568,0
412896,-0.339949876070023,0
413002,-0.342021465301514,0
413112,-0.342228621244431,0
413224,-0.342642962932587,0
413332,-0.341814309358597,0
413442,-0.342228621244431,0
413548,-0.342021465301514,0
413658,-0.340571343898773,0
413770,-0.34160715341568,0
413878,-0.34160715341568,0
413988,-0.342021465301514,0
414094,-0.341814309358597,0
414204,-0.342021465301514,0
414316,-0.340571343898773,0
414424,-0.342021465301514,0
414534,-0.342850118875504,0
414640,-0.341814309358597,0
414749,-0.341399997472763,0
414861,-0.34160715341568,0
414970,-0.341814309358597,0
415079,-0.34243580698967,0
415186,-0.342021465301514,0
415295,-0.34243580698967,0
415407,-0.341399997472763,0
415516,-0.34160715341568,0
415625,-0.342228621244431,0
415732,-0.34077849984169,0
415841,-0.342021465301514,0
415953,-0.342642962932587,0
416062,-0.341192841529846,0
416171,-0.342228621244431,0
416278,-0.341399997472763,0
416387,-0.342228621244431,0
416499,-0.342228621244431,0
416608,-0.34160715341568,0
416717,-0.341814309358597,0
416824,-0.34160715341568,0
416933,-0.34305727481842,0
417045,-0.342021465301514,0
417154,-0.342021465301514,0
417263,-0.34305727481842,0
417370,-0.34160715341568,0
417479,-0.34160715341568,0
417591,-0.342021465301514,0
417700,-0.34160715341568,0
417809,-0.341814309358597,0
417916,-0.34160715341568,0
418025,-0.341814309358597,0
418137,-0.342021465301514,0
418246,-0.341192841529846,0
418355,-0.342850118875504,0
418463,-0.342228621244431,0
418571,-0.339949876070023,0
418683,-0.340985685586929,0
418792,-0.340571343898773,0
418901,-0.339949876070023,0
419008,-0.340364187955856,0
419117,-0.340985685586929,0
419231,-0.342228621244431,0
419338,-0.341814309358597,0
419447,-0.340985685586929,0
419554,-0.342228621244431,0
419664,-0.340985685586929,0
419773,-0.34160715341568,0
419885,-0.341814309358597,0
419994,-0.34160715341568,0
420101,-0.342228621244431,0
420210,-0.342642962932587,0
420322,-0.34160715341568,0
420431,-0.342021465301514,0
420540,-0.341399997472763,0
420647,-0.342228621244431,0
420756,-0.341814309358597,0
420868,-0.341814309358597,0
420977,-0.340985685586929,0
421086,-0.341814309358597,0
421193,-0.342642962932587,0
421302,-0.342021465301514,0
421414,-0.342850118875504,0
421523,-0.341192841529846,0
421632,-0.340571343898773,0
421739,-0.341399997472763,0
421848,-0.342021465301514,0
421960,-0.340985685586929,0
422069,-0.342228621244431,0
422178,-0.342021465301514,0
422285,-0.343264430761337,0
422394,-0.341399997472763,0
422506,-0.34243580698967,0
422615,-0.342021465301514,0
422724,-0.341399997472763,0
422831,-0.342228621244431,0
422940,-0.341192841529846,0
423052,-0.342021465301514,0
423161,-0.340364187955856,0
423270,-0.342021465301514,0
423377,-0.34160715341568,0
423486,-0.34243580698967,0
423598,-0.342228621244431,0
423707,-0.341399997472763,0
423816,-0.340985685586929,0
423923,-0.340985685586929,0
424032,-0.341814309358597,0
424144,-0.342021465301514,0
424253,-0.342228621244431,0
424362,-0.342021465301514,0
424469,-0.342642962932587,0
424578,-0.342228621244431,0
424690,-0.341399997472763,0
424799,-0.341192841529846,0
424908,-0.342642962932587,0
425015,-0.341399997472763,0
425124,-0.341814309358597,0
425236,-0.343471586704254,0
425345,-0.341192841529846,0
425454,-0.340985685586929,0
425561,-0.342021465301514,0
425670,-0.34077849984169,0
425782,-0.340985685586929,0
425891,-0.341192841529846,0
426000,-0.34305727481842,0
426107,-0.341399997472763,0
426216,-0.341814309358597,0
426328,-0.342021465301514,0
426437,-0.341192841529846,0
426546,-0.34077849984169,0
426653,-0.340985685586929,0
426762,-0.342021465301514,0
426871,-0.341399997472763,0
426983,-0.342642962932587,0
427092,-0.341192841529846,0
427199,-0.341399997472763,0
427308,-0.341399997472763,0
427420,-0.341814309358597,0
427529,-0.341399997472763,0
427638,-0.34243580698967,0
427745,-0.340985685586929,0
427857,-0.341814309358597,0
427965,-0.342850118875504,0
428075,-0.342642962932587,0
428181,-0.341399997472763,0
428291,-0.341814309358597,0
428403,-0.341192841529846,0
428511,-0.343264430761337,0
428621,-0.341192841529846,0
428727,-0.341399997472763,0
428837,-0.34243580698967,0
428949,-0.341399997472763,0
429057,-0.34077849984169,0
429167,-0.341399997472763,0
429273,-0.341192841529846,0
429383,-0.34160715341568,0
429495,-0.341399997472763,0
429603,-0.343678742647171,0
429713,-0.340985685586929,0
429819,-0.340571343898773,0
429929,-0.340985685586929,0
430041,-0.342021465301514,0
430149,-0.34243580698967,0
430259,-0.342642962932587,0
430365,-0.341814309358597,0
430474,-0.342228621244431,0
430586,-0.340985685586929,0
430695,-0.342021465301514,0
430804,-0.342021465301514,0
430911,-0.341192841529846,0
431020,-0.34160715341568,0
431132,-0.341192841529846,0
431241,-0.342642962932587,0
431350,-0.342228621244431,0
431457,-0.341814309358597,0
431566,-0.34243580698967,0
431678,-0.341399997472763,0
431787,-0.34160715341568,0
431896,-0.341192841529846,0
432003,-0.341814309358597,0
432112,-0.340571343898773,0
432224,-0.340985685586929,0
432333,-0.342021465301514,0
432442,-0.342021465301514,0
432549,-0.342021465301514,0
432659,-0.341814309358597,0
432770,-0.341399997472763,0
432879,-0.341192841529846,0
432988,-0.341814309358597,0
433095,-0.340985685586929,0
433205,-0.341399997472763,0
433316,-0.341399997472763,0
433425,-0.34160715341568,0
433534,-0.342021465301514,0
433641,-0.34243580698967,0
433750,-0.341192841529846,0
433862,-0.342228621244431,0
433969,-0.342642962932587,0
434080,-0.341192841529846,0
434187,-0.34243580698967,0
434296,-0.341814309358597,0
434408,-0.342021465301514,0
434517,-0.34160715341568,0
434626,-0.340571343898773,0
434733,-0.341399997472763,0
434842,-0.342228621244431,0
434954,-0.34160715341568,0
435063,-0.340985685586929,0
435172,-0.341399997472763,0
435279,-0.341814309358597,0
435388,-0.343264430761337,0
435500,-0.341399997472763,0
435609,-0.34077849984169,0
435718,-0.340364187955856,0
435825,-0.34160715341568,0
435934,-0.34077849984169,0
436046,-0.341814309358597,0
436155,-0.341814309358597,0
436264,-0.342228621244431,0
436371,-0.342642962932587,0
436480,-0.342228621244431,0
436592,-0.34077849984169,0
436701,-0.342228621244431,0
436810,-0.341399997472763,0
436917,-0.341192841529846,0
437026,-0.34160715341568,0
437139,-0.341399997472763,0
437248,-0.342228621244431,0
437357,-0.34243580698967,0
437464,-0.34160715341568,0
437573,-0.341814309358597,0
437685,-0.34243580698967,0
437794,-0.34243580698967,0
437903,-0.342021465301514,0
438010,-0.340985685586929,0
438119,-0.341192841529846,0
438231,-0.341192841529846,0
438340,-0.341814309358597,0
438449,-0.341814309358597,0
438556,-0.342021465301514,0
438665,-0.341399997472763,0
438777,-0.34077849984169,0
438886,-0.34160715341568,0
438995,-0.341814309358597,0
439102,-0.342021465301514,0
439211,-0.34243580698967,0
439323,-0.340985685586929,0
439432,-0.341192841529846,0
439541,-0.34160715341568,0
439648,-0.341399997472763,0
439757,-0.342021465301514,0
439869,-0.341399997472763,0
439978,-0.341814309358597,0
440087,-0.341814309358597,0
440194,-0.34077849984169,0
440303,-0.342021465301514,0
440415,-0.34243580698967,0
440524,-0.341399997472763,0
440633,-0.34160715341568,0
440740,-0.34160715341568,0
440849,-0.34243580698967,0
440961,-0.341814309358597,0
441067,-0.34160715341568,0
441179,-0.341399997472763,0
441286,-0.342228621244431,0
441395,-0.34160715341568,0
441507,-0.340985685586929,0
441616,-0.34160715341568,0
441725,-0.341814309358597,0
441832,-0.34160715341568,0
441941,-0.341399997472763,0
442053,-0.34243580698967,0
442162,-0.341814309358597,0
442271,-0.341399997472763,0
442378,-0.34160715341568,0
442487,-0.34243580698967,0
442599,-0.342228621244431,0
442708,-0.342228621244431,0
442817,-0.342228621244431,0
442924,-0.34077849984169,0
443033,-0.341192841529846,0
443145,-0.342228621244431,0
443254,-0.34160715341568,0
443363,-0.341814309358597,0
443470,-0.342021465301514,0
443579,-0.341814309358597,0
443691,-0.342228621244431,0
443800,-0.342021465301514,0
443907,-0.341399997472763,0
444016,-0.341192841529846,0
444125,-0.342228621244431,0
444237,-0.341399997472763,0
444346,-0.342021465301514,0
444455,-0.341814309358597,0
444562,-0.342228621244431,0
444671,-0.341814309358597,0
444783,-0.341399997472763,0
444892,-0.342021465301514,0
445001,-0.34243580698967,0
445108,-0.341814309358597,0
445218,-0.341399997472763,0
445329,-0.341192841529846,0
445438,-0.342021465301514,0
445547,-0.341399997472763,0
445654,-0.34160715341568,0
445763,-0.342021465301514,0
445875,-0.341399997472763,0
445984,-0.342021465301514,0
446093,-0.340364187955856,0
446200,-0.342021465301514,0
446309,-0.34160715341568,0
446421,-0.34160715341568,0
446527,-0.342228621244431,0
446639,-0.342021465301514,0
446745,-0.342021465301514,0
446855,-0.341192841529846,0
446967,-0.34160715341568,0
447075,-0.341192841529846,0
447186,-0.342850118875504,0
447291,-0.341814309358597,0
447401,-0.34243580698967,0
447513,-0.342228621244431,0
447622,-0.342021465301514,0
447731,-0.342228621244431,0
447838,-0.341399997472763,0
447948,-0.342228621244431,0
448061,-0.342021465301514,0
448165,-0.342642962932587,0
448277,-0.341192841529846,0
448383,-0.34160715341568,0
448493,-0.34305727481842,0
448605,-0.341399997472763,0
448713,-0.342021465301514,0
448823,-0.34160715341568,0
448929,-0.34305727481842,0
449040,-0.341399997472763,0
449151,-0.342642962932587,0
449259,-0.342228621244431,0
449369,-0.34160715341568,0
449475,-0.342228621244431,0
449585,-0.341192841529846,0
449696,-0.342021465301514,0
449805,-0.342021465301514,0
449915,-0.342642962932587,0
450021,-0.341814309358597,0
450130,-0.34077849984169,0
450242,-0.342021465301514,0
450351,-0.341814309358597,0
450460,-0.34160715341568,0
450567,-0.341192841529846,0
450676,-0.34243580698967,0
450788,-0.34160715341568,0
450897,-0.341814309358597,0
451006,-0.342021465301514,0
451113,-0.342021465301514,0
451222,-0.341399997472763,0
451334,-0.341399997472763,0
451443,-0.342642962932587,0
451552,-0.341814309358597,0
451659,-0.342228621244431,0
451768,-0.34243580698967,0
451880,-0.341192841529846,0
451989,-0.342228621244431,0
452098,-0.341399997472763,0
452205,-0.34160715341568,0
452314,-0.341399997472763,0
452426,-0.342642962932587,0
452535,-0.341814309358597,0
452644,-0.34160715341568,0
452751,-0.342228621244431,0
452860,-0.342021465301514,0
452972,-0.341399997472763,0
453081,-0.341192841529846,0
453190,-0.34243580698967,0
453297,-0.341814309358597,0
453406,-0.34243580698967,0
453518,-0.342850118875504,0
453627,-0.342021465301514,0
453736,-0.342642962932587,0
453843,-0.34160715341568,0
453952,-0.342642962932587,0
454064,-0.341192841529846,0
454173,-0.342021465301514,0
454282,-0.34160715341568,0
454389,-0.34160715341568,0
454498,-0.342021465301514,0
454611,-0.342228621244431,0
454720,-0.34160715341568,0
454829,-0.341814309358597,0
454936,-0.342642962932587,0
455045,-0.342021465301514,0
455157,-0.342228621244431,0
455264,-0.342021465301514,0
455375,-0.341192841529846,0
455482,-0.342642962932587,0
455591,-0.34243580698967,0
455703,-0.341192841529846,0
455812,-0.342850118875504,0
455921,-0.340571343898773,0
456028,-0.342642962932587,0
456137,-0.341814309358597,0
456249,-0.34077849984169,0
456358,-0.34160715341568,0
456467,-0.341192841529846,0
456574,-0.341399997472763,0
456683,-0.341814309358597,0
456795,-0.34243580698967,0
456904,-0.342642962932587,0
457013,-0.34243580698967,0
457120,-0.342850118875504,0
457229,-0.340571343898773,0
457341,-0.34243580698967,0
457450,-0.34077849984169,0
457559,-0.34160715341568,0
457666,-0.342228621244431,0
457775,-0.342021465301514,0
457887,-0.342021465301514,0
457996,-0.342642962932587,0
458105,-0.34077849984169,0
458212,-0.341399997472763,0
458321,-0.341399997472763,0
458433,-0.342021465301514,0
458542,-0.342021465301514,0
458651,-0.342642962932587,0
458758,-0.342228621244431,0
458867,-0.342850118875504,0
458979,-0.342642962932587,0
459088,-0.340364187955856,0
459195,-0.342021465301514,0
459304,-0.342228621244431,0
459416,-0.34077849984169,0
459525,-0.341814309358597,0
459634,-0.340157032012939,0
459741,-0.341399997472763,0
459850,-0.341814309358597,0
459962,-0.342021465301514,0
460071,-0.341192841529846,0
460180,-0.340985685586929,0
460287,-0.341814309358597,0
460396,-0.341192841529846,0
460508,-0.342021465301514,0
460617,-0.34160715341568,0
460726,-0.34160715341568,0
460833,-0.34243580698967,0
460942,-0.342642962932587,0
461054,-0.342021465301514,0
461163,-0.341814309358597,0
461272,-0.34160715341568,0
461379,-0.339949876070023,0
461488,-0.341814309358597,0
461600,-0.34160715341568,0
461709,-0.341399997472763,0
461818,-0.341399997472763,0
461924,-0.341192841529846,0
462034,-0.341399997472763,0
462146,-0.342228621244431,0
462254,-0.341399997472763,0
462362,-0.342021465301514,0
462470,-0.342021465301514,0
462580,-0.34243580698967,0
462692,-0.34160715341568,0
462800,-0.342642962932587,0
462910,-0.34160715341568,0
463016,-0.342228621244431,0
463126,-0.340985685586929,0
463238,-0.342021465301514,0
463346,-0.341399997472763,0
463456,-0.34243580698967,0
463562,-0.340571343898773,0
463672,-0.342021465301514,0
463784,-0.342021465301514,0
463892,-0.341814309358597,0
464002,-0.342228621244431,0
464108,-0.34243580698967,0
464218,-0.341399997472763,0
464330,-0.342850118875504,0
464438,-0.34160715341568,0
464548,-0.34160715341568,0
464654,-0.342642962932587,0
464764,-0.340985685586929,0
464876,-0.342021465301514,0
464984,-0.340985685586929,0
465094,-0.34160715341568,0
465200,-0.340985685586929,0
465310,-0.342228621244431,0
465422,-0.342228621244431,0
465530,-0.34160715341568,0
465640,-0.341192841529846,0
465746,-0.341814309358597,0
465855,-0.341192841529846,0
465967,-0.341192841529846,0
466076,-0.340571343898773,0
466185,-0.34243580698967,0
466292,-0.342021465301514,0
466401,-0.342021465301514,0
466513,-0.340985685586929,0
466622,-0.342021465301514,0
466731,-0.341399997472763,0
466838,-0.341192841529846,0
466947,-0.342021465301514,0
467059,-0.34160715341568,0
467168,-0.34160715341568,0
467277,-0.341814309358597,0
467384,-0.342228621244431,0
467493,-0.34243580698967,0
467605,-0.34160715341568,0
467714,-0.341399997472763,0
467823,-0.341814309358597,0
467930,-0.34160715341568,0
468039,-0.341192841529846,0
468151,-0.342021465301514,0
468260,-0.34160715341568,0
468369,-0.342021465301514,0
468476,-0.342021465301514,0
468585,-0.341399997472763,0
468697,-0.342021465301514,0
468806,-0.342642962932587,0
468915,-0.341814309358597,0
469022,-0.341814309358597,0
469131,-0.34305727481842,0
469243,-0.340985685586929,0
469352,-0.342642962932587,0
469459,-0.341192841529846,0
469568,-0.340985685586929,0
469677,-0.341814309358597,0
469790,-0.34160715341568,0
469898,-0.341399997472763,0
470007,-0.341814309358597,0
470115,-0.341814309358597,0
470223,-0.341399997472763,0
470335,-0.34160715341568,0
470444,-0.341814309358597,0
470553,-0.342850118875504,0
470661,-0.342642962932587,0
470770,-0.342228621244431,0
470881,-0.341399997472763,0
470990,-0.341399997472763,0
471099,-0.342642962932587,0
471206,-0.34243580698967,0
471315,-0.340985685586929,0
471427,-0.342228621244431,0
471536,-0.341399997472763,0
471646,-0.339949876070023,0
471753,-0.342642962932587,0
471861,-0.341192841529846,0
471973,-0.341814309358597,0
472083,-0.342021465301514,0
472193,-0.340985685586929,0
472299,-0.342021465301514,0
472408,-0.342642962932587,0
472520,-0.34077849984169,0
472629,-0.342228621244431,0
472739,-0.341814309358597,0
472846,-0.342228621244431,0
472955,-0.340985685586929,0
473066,-0.342021465301514,0
473175,-0.342642962932587,0
473284,-0.342021465301514,0
473391,-0.342228621244431,0
473500,-0.341192841529846,0
473612,-0.341399997472763,0
473721,-0.341814309358597,0
473830,-0.34243580698967,0
473937,-0.341192841529846,0
474046,-0.342228621244431,0
474158,-0.342642962932587,0
474267,-0.34077849984169,0
474376,-0.341814309358597,0
474483,-0.341399997472763,0
474592,-0.340571343898773,0
474702,-0.34160715341568,0
474813,-0.34160715341568,0
474922,-0.340571343898773,0
475029,-0.340985685586929,0
475138,-0.342642962932587,0
475250,-0.34077849984169,0
475359,-0.341814309358597,0
475468,-0.342850118875504,0
475575,-0.34243580698967,0
475684,-0.342850118875504,0
475796,-0.340985685586929,0
475905,-0.342021465301514,0
476014,-0.341399997472763,0
476121,-0.342642962932587,0
476230,-0.340571343898773,0
476342,-0.340985685586929,0
476451,-0.340364187955856,0
476558,-0.341192841529846,0
476667,-0.34243580698967,0
476776,-0.342228621244431,0
476890,-0.341399997472763,0
476997,-0.342228621244431,0
477106,-0.342021465301514,0
477213,-0.34305727481842,0
477322,-0.34160715341568,0
477434,-0.342642962932587,0
477543,-0.34077849984169,0
477652,-0.34160715341568,0
477759,-0.341399997472763,0
477868,-0.342228621244431,0
477980,-0.341814309358597,0
478089,-0.342021465301514,0
478198,-0.34160715341568,0
478305,-0.341399997472763,0
478414,-0.342021465301514,0
478526,-0.341192841529846,0
478635,-0.342228621244431,0
478744,-0.34160715341568,0
478851,-0.342021465301514,0
478960,-0.34160715341568,0
479072,-0.341814309358597,0
479181,-0.342228621244431,0
479290,-0.341814309358597,0
479397,-0.34243580698967,0
479506,-0.341814309358597,0
479618,-0.341192841529846,0
479727,-0.340985685586929,0
479836,-0.34243580698967,0
479943,-0.34243580698967,0
480052,-0.341399997472763,0
480164,-0.341192841529846,0
480273,-0.34160715341568,0
480382,-0.340157032012939,0
480489,-0.342021465301514,0
480598,-0.341814309358597,0
480710,-0.341399997472763,0
480819,-0.342228621244431,0
480928,-0.341399997472763,0
481035,-0.34160715341568,0
481144,-0.341192841529846,0
481256,-0.340985685586929,0
481365,-0.34160715341568,0
481474,-0.34160715341568,0
481580,-0.342021465301514,0
