time,raw,transformed
5310,-0.340571343898773,0
5400,-0.340364187955856,0
5510,-0.340985685586929,0
5620,-0.340985685586929,0
5730,-0.340157032012939,45.0005394713194
5840,-0.341192841529846,46.6667625733686
5950,-0.341192841529846,40.0000822057461
6060,-0.339742720127106,37.5002568950635
6160,-0.339949876070023,42.8574038299066
6270,-0.339742720127106,48.5716634469152
6380,-0.339742720127106,53.2469667699212
6490,-0.340364187955856,53.5716976995891
6600,-0.340157032012939,54.9453485394138
6710,-0.34160715341568,60.3175237486312
6820,-0.340985685586929,58.5185421994873
6930,-0.34077849984169,57.6389665920716
7040,-0.340571343898773,57.5164547916341
7150,-0.339949876070023,59.2593776641081
7260,-0.340571343898773,59.0644770494008
7370,-0.339949876070023,60.5557065217397
7470,-0.340985685586929,59.2593776641081
7580,-0.340571343898773,59.0910544059516
7690,-0.341192841529846,57.4880462582015
7800,-0.340157032012939,58.3334665387884
7910,-0.339949876070023,59.555690537083
8020,-0.341814309358597,61.1539070185899
8130,-0.341192841529846,60.0000426258128
8240,-0.340985685586929,59.2857348374449
8350,-0.340157032012939,60.0000297645764
8460,-0.340364187955856,60.333376491971
8570,-0.34077849984169,60.00006496999
8680,-0.341192841529846,59.0625494526046
8790,-0.341399997472763,57.8788271139133
8890,-0.34160715341568,56.4706220852042
9000,-0.340985685586929,56.0000164413841
9110,-0.339535564184189,52.2728065357092
9220,-0.340985685586929,51.8428161100331
9330,-0.340364187955856,52.1531851390933
9440,-0.341192841529846,51.5152155352515
9550,-0.340364187955856,51.8182561272271
9660,-0.339742720127106,52.7716940217717
9770,-0.339742720127106,53.6797301118139
9880,-0.34077849984169,53.4884633376185
9990,-0.341814309358597,52.2728164435821
10100,-0.339949876070023,52.9293854027715
10200,-0.340157032012939,53.3597820116376
10310,-0.34077849984169,53.1916006671646
10420,-0.342228621244431,59.1346295722478
10530,-0.339742720127106,59.8116325898249
10640,-0.340157032012939,60.1538665840373
10750,-0.341192841529846,59.7285184712645
10860,-0.339949876070023,60.2071153250276
10970,-0.341192841529846,59.7968133912076
11080,-0.340157032012939,60.113971148785
11190,-0.340571343898773,60.1398787127625
11300,-0.341192841529846,59.7527578934712
11410,-0.338085442781448,39.9121608166519
11520,-0.340571343898773,39.9136777657126
11620,-0.340364187955856,39.9998878363108
11730,-0.341192841529846,39.7498837114514
11840,-0.340571343898773,39.7539863368723
11950,-0.33932837843895,40.2418322279927
12060,-0.340157032012939,40.3967237799298
12170,-0.34077849984169,40.3124033426364
12280,-0.340985685586929,40.1537443437284
12390,-0.339949876070023,40.3786865213835
12500,-0.34077849984169,40.2984108388726
12610,-0.34160715341568,39.9263722119307
12720,-0.340157032012939,40.0723668175552
12830,-0.340364187955856,40.1427626048913
12930,-0.340571343898773,40.1407538902043
13040,-0.340364187955856,40.2082444185496
13150,-0.342228621244431,39.6574465498016
13260,-0.340364187955856,39.7296441900897
13370,-0.340571343898773,39.7332508523837
13480,-0.340364187955856,39.8025511297344
13590,-0.34077849984169,39.7401831383499
13700,-0.339949876070023,39.9358208938701
13810,-0.339535564184189,40.2530862522627
13920,-0.340364187955856,40.3124235732469
14030,-0.340157032012939,40.4320232822192
14140,-0.340157032012939,40.5487059251188
14250,-0.340571343898773,40.542096743638
14350,-0.341192841529846,40.3570675007923
14460,-0.339949876070023,40.5293364486532
14570,-0.340571343898773,40.5231830464842
14680,-0.340157032012939,40.6321119769845
14790,-0.340364187955856,40.6817478855541
14900,-0.340364187955856,40.7302683804467
15010,-0.34077849984169,40.6666011294779
15120,-0.341192841529846,40.4944367252496
15230,-0.340571343898773,40.4890639767363
15340,-0.339535564184189,40.752620108243
15450,-0.339742720127106,40.9573779383456
15560,-0.340985685586929,40.8420325749281
15660,-0.340571343898773,40.8332629008358
15770,-0.340571343898773,40.8246740447665
15880,-0.340157032012939,40.9182998198196
15990,-0.339121222496033,41.2625630504815
16100,-0.339535564184189,41.4999352620442
16210,-0.341192841529846,41.336566005437
16320,-0.340364187955856,41.372482730198
16430,-0.339535564184189,41.6018740066702
16540,-0.34077849984169,41.5383965238481
16650,-0.340364187955856,41.5713648610601
16760,-0.339742720127106,41.7452185523512
16870,-0.34077849984169,41.6821811433868
16980,-0.340985685586929,41.5740088032964
17080,-0.340571343898773,41.5595696753959
17190,-0.340157032012939,41.6363008601654
17300,-0.34077849984169,41.5765163100111
17410,-0.342021465301514,41.2499396292882
17520,-0.341399997472763,41.0618845199644
17630,-0.340571343898773,41.0525710054226
17740,-0.34077849984169,40.9999418296635
17850,-0.340157032012939,41.0775285380283
17960,-0.341814309358597,40.8119074064033
18070,-0.341192841529846,40.6779051431687
18180,-0.340157032012939,40.756242074739
18290,-0.340571343898773,40.7499412562996
18390,-0.340364187955856,40.785066303199
18500,-0.340571343898773,40.778632512698
18610,-0.34160715341568,40.56904838013
18720,-0.341192841529846,40.4434886379094
18830,-0.340571343898773,40.439941879702
18940,-0.341192841529846,40.3173998040281
19050,-0.341399997472763,40.1574180124662
19160,-0.34077849984169,40.1171273701285
19270,-0.339949876070023,40.2343131842442
19380,-0.340157032012939,40.2733751222828
19490,-0.339949876070023,40.4686904320899
19600,-0.34077849984169,40.5077579897426
19710,-0.340157032012939,40.5077579897426
19810,-0.339949876070023,40.7421352375883
19920,-0.340571343898773,40.8593266713182
20030,-0.340157032012939,40.781202795241
20140,-0.34077849984169,40.6249550430867
20250,-0.340985685586929,40.390577795241
20360,-0.339121222496033,40.507769228971
20470,-0.339742720127106,40.6249550430867
20580,-0.34077849984169,40.507769228971
20690,-0.339121222496033,40.9765237246623
20800,-0.341399997472763,40.8983998485851
20910,-0.33932837843895,41.1718390344694
21020,-0.340364187955856,41.2109009725079
21120,-0.34077849984169,41.0546532203536
21230,-0.340571343898773,41.0546532203536
21340,-0.340571343898773,40.9374674062379
21450,-0.33932837843895,41.2499741497749
21560,-0.341814309358597,41.0155969019292
21670,-0.340571343898773,41.1327883356591
21780,-0.341192841529846,40.937473025852
21890,-0.339121222496033,41.0937263976205
22000,-0.339742720127106,41.4843513976205
22110,-0.341192841529846,41.4843513976205
22220,-0.340157032012939,41.640604769389
22330,-0.341814309358597,41.3281036454662
22440,-0.342021465301514,41.0156025215434
22540,-0.34077849984169,41.0156025215434
22650,-0.340364187955856,41.1718558933119
22760,-0.341192841529846,41.2109178313504
22870,-0.340571343898773,41.4062331411575
22980,-0.340571343898773,41.4843626368488
23090,-0.34077849984169,41.2499910086173
23200,-0.340364187955856,41.3671824423473
23310,-0.340571343898773,41.3281205043087
23420,-0.341814309358597,41.2109346901929
23530,-0.340364187955856,41.2109346901929
23640,-0.340157032012939,41.1328108141158
23750,-0.340985685586929,40.8984335662701
23850,-0.340157032012939,41.0156193803858
23960,-0.340571343898773,41.2499966282315
24070,-0.340985685586929,41.0546813184244
24180,-0.341399997472763,40.8203040705788
24290,-0.342228621244431,40.5468648846945
24400,-0.339742720127106,41.0156137607717
24510,-0.340571343898773,40.8593660086173
24620,-0.340157032012939,40.8593660086173
24730,-0.340571343898773,40.9765574423473
24840,-0.340157032012939,40.9374955043087
24950,-0.340364187955856,41.0937488760772
25060,-0.339949876070023,41.1328108141158
25170,-0.340985685586929,41.0546813184244
25270,-0.341399997472763,41.0156193803858
25380,-0.341399997472763,40.3906171325402
25490,-0.340571343898773,40.3906171325402
25600,-0.340571343898773,40.3515551945016
25710,-0.340364187955856,40.5078085662701
25820,-0.34077849984169,40.4687466282315
25930,-0.341192841529846,40.1171779466559
26040,-0.340985685586929,39.9609245748874
26150,-0.341399997472763,39.8437331411575
26260,-0.34077849984169,39.8828006988103
26370,-0.341814309358597,39.5312376368488
26480,-0.340985685586929,39.4921700791961
26580,-0.34077849984169,39.6484234509646
26690,-0.340157032012939,39.6484234509646
26800,-0.340364187955856,39.6484234509646
26910,-0.342228621244431,39.3359223270418
27020,-0.341399997472763,39.1406070172347
27130,-0.340571343898773,39.4531081411575
27240,-0.340157032012939,39.4921700791961
27350,-0.340985685586929,39.4140405835048
27460,-0.34077849984169,39.3359167074276
27570,-0.341399997472763,39.2187252736977
27680,-0.340571343898773,39.1015394595819
27790,-0.340364187955856,38.9452917074276
27900,-0.342228621244431,38.5937286454662
28000,-0.341399997472763,38.3593513976205
28110,-0.34077849984169,38.2421655835048
28220,-0.340157032012939,38.3202894595819
28330,-0.340571343898773,38.4374808933119
28440,-0.341399997472763,38.1640417074276
28550,-0.34160715341568,37.9687263976205
28660,-0.340571343898773,37.8906025215434
28770,-0.339949876070023,37.9687263976205
28880,-0.341814309358597,37.6952872117363
28990,-0.339742720127106,37.8905969019292
29100,-0.342021465301514,37.7343491497749
29210,-0.339742720127106,37.8905969019292
29320,-0.34160715341568,37.4999719019292
29420,-0.341192841529846,37.2265327160449
29530,-0.34077849984169,37.2656002736977
29640,-0.339949876070023,37.3827860878134
29750,-0.340571343898773,37.3827860878134
29860,-0.341192841529846,37.1874707780064
29970,-0.340571343898773,36.9140315921221
30080,-0.341399997472763,36.5624685301607
30190,-0.339535564184189,36.8749696540835
30300,-0.339121222496033,37.1093469019292
30410,-0.340985685586929,36.8359077160449
30520,-0.340364187955856,36.9140315921221
30630,-0.34160715341568,36.6796543442764
30730,-0.341814309358597,36.2890293442764
30840,-0.340157032012939,36.4062151583922
30950,-0.340985685586929,36.4062151583922
31060,-0.34243580698967,36.0546464768166
31170,-0.339742720127106,36.1327703528938
31280,-0.339121222496033,36.4452714768166
31390,-0.339949876070023,36.8358964768166
31500,-0.342021465301514,36.7187106627009
31610,-0.34077849984169,36.6796487246623
31720,-0.339535564184189,36.9140203528938
31830,-0.341192841529846,36.7187050430867
31940,-0.338085442781448,37.4218311670095
32050,-0.340157032012939,37.6171464768166
32150,-0.34077849984169,37.4999606627009
32260,-0.342021465301514,37.2265214768166
32370,-0.340157032012939,37.2655834148552
32480,-0.340157032012939,37.3437072909324
32590,-0.340571343898773,37.5390226007395
32700,-0.34077849984169,37.6171520964308
32810,-0.342021465301514,37.3437129105465
32920,-0.34077849984169,37.4218424062379
33030,-0.339742720127106,37.7343435301607
33140,-0.340985685586929,37.6952759725079
33250,-0.339742720127106,37.7343379105465
33360,-0.34160715341568,37.4608987246623
33460,-0.34160715341568,37.1483976007395
33570,-0.340985685586929,37.1093300430867
33680,-0.341192841529846,36.9140147332796
33790,-0.340157032012939,36.874952795241
33900,-0.340985685586929,36.7968232995497
34010,-0.339535564184189,36.9140091136655
34120,-0.339742720127106,37.1093188038584
34230,-0.339949876070023,37.3046341136655
34340,-0.341192841529846,36.9140034940513
34450,-0.340985685586929,36.6796262462056
34560,-0.339742720127106,36.8749359363986
34670,-0.340571343898773,36.6014967505143
34780,-0.340157032012939,36.83587399836
34880,-0.340571343898773,36.6014967505143
34990,-0.341814309358597,36.3280575646301
35100,-0.340364187955856,36.4061814407072
35210,-0.339535564184189,36.6014911309001
35320,-0.339742720127106,36.7577388830545
35430,-0.340985685586929,36.4452321395175
35540,-0.341814309358597,36.4452321395175
35650,-0.340157032012939,36.5233560155947
35760,-0.339742720127106,36.7967952014789
35870,-0.340364187955856,36.5624179536332
35980,-0.34077849984169,36.3671082634403
36090,-0.340571343898773,36.4842996971702
36190,-0.341814309358597,36.1717985732474
36300,-0.340157032012939,36.4842996971702
36410,-0.341399997472763,36.601485511286
36520,-0.342021465301514,36.3671082634403
36630,-0.339535564184189,36.5233560155947
36740,-0.34077849984169,36.601485511286
36850,-0.34077849984169,36.5624235732474
36960,-0.341192841529846,36.4452321395175
37070,-0.340364187955856,36.5233560155947
37180,-0.340985685586929,36.4061645818647
37290,-0.340985685586929,36.3280350861734
37400,-0.34160715341568,36.367097024212
37510,-0.339949876070023,36.4452209002892
37610,-0.341192841529846,36.2499055904821
37720,-0.34077849984169,36.2889731481348
37830,-0.34160715341568,36.0155339622506
37940,-0.340157032012939,36.0936578383278
38050,-0.34077849984169,36.1327253959805
38160,-0.340985685586929,36.2108492720577
38270,-0.340571343898773,36.5233503959805
38380,-0.340157032012939,36.4452265199033
38490,-0.340985685586929,36.367097024212
38600,-0.340985685586929,36.2108436524435
38710,-0.340157032012939,36.2889675285207
38820,-0.342021465301514,35.9374044665593
38920,-0.340985685586929,35.8202130328293
39030,-0.341192841529846,35.5858357849837
39140,-0.340364187955856,35.7030272187136
39250,-0.340985685586929,35.7811510947908
39360,-0.340364187955856,35.9764664045978
39470,-0.340157032012939,36.054590280675
39580,-0.34160715341568,35.8592749708679
39690,-0.341192841529846,35.7030215990994
39800,-0.34077849984169,35.7030215990994
39910,-0.34243580698967,35.4686443512538
40020,-0.34077849984169,35.5077119089065
40130,-0.341192841529846,35.5467738469451
40240,-0.34077849984169,35.5467738469451
40340,-0.339742720127106,35.9373988469451
40450,-0.340571343898773,36.0155283426364
40560,-0.340985685586929,35.9764607849837
40670,-0.340157032012939,35.9764607849837
40780,-0.340157032012939,36.0155227230223
40890,-0.341192841529846,36.2108324132152
41000,-0.340157032012939,36.4452096610608
41110,-0.340985685586929,36.3670801653695
41220,-0.34077849984169,36.2498943512538
41330,-0.34077849984169,36.2889619089065
41440,-0.338914066553116,36.6405249708679
41550,-0.340364187955856,36.835840280675
41650,-0.341192841529846,36.7186488469451
41760,-0.340571343898773,36.6795869089065
41870,-0.340571343898773,36.9920880328293
41980,-0.339742720127106,37.3045891567522
42090,-0.341192841529846,37.2264596610608
42200,-0.340364187955856,37.1873977230223
42310,-0.34160715341568,36.9920824132152
42420,-0.341814309358597,36.913958537138
42530,-0.339949876070023,37.2264596610608
42640,-0.339949876070023,37.3436454751766
42750,-0.340571343898773,37.2264596610608
42860,-0.340985685586929,37.3827074132152
42970,-0.34160715341568,37.0311443512538
43070,-0.340364187955856,37.3436454751766
43180,-0.339742720127106,37.3436454751766
43290,-0.340571343898773,37.5389607849837
43400,-0.340364187955856,37.6952141567522
43510,-0.341399997472763,37.5780227230223
43620,-0.34160715341568,37.2655215990994
43730,-0.339742720127106,37.4217693512538
43840,-0.340364187955856,37.5780227230223
43950,-0.339949876070023,37.695208537138
44060,-0.340985685586929,37.7733324132152
44170,-0.341399997472763,37.4217693512538
44280,-0.34077849984169,37.1092682273309
44380,-0.341399997472763,37.0311443512538
44490,-0.341399997472763,36.8358290414467
44600,-0.341192841529846,36.9139529175238
44710,-0.34077849984169,37.1092682273309
44820,-0.34160715341568,36.8358290414467
44930,-0.34077849984169,36.8748965990994
45040,-0.341192841529846,37.1092738469451
45150,-0.341399997472763,36.7967727230223
45260,-0.339949876070023,36.6405193512538
45370,-0.340571343898773,36.523333537138
45480,-0.34077849984169,36.7577107849837
45590,-0.340985685586929,36.7186432273309
45700,-0.342021465301514,36.2498943512538
45800,-0.340985685586929,36.2889562892923
45910,-0.340985685586929,35.7420779175238
46020,-0.340571343898773,35.6639540414467
46130,-0.341399997472763,35.5467626077168
46240,-0.340985685586929,35.7420722979097
46350,-0.34077849984169,35.6248864837939
46460,-0.341192841529846,35.4295711739869
46570,-0.341192841529846,35.3123797402569
46680,-0.34077849984169,35.3123797402569
46790,-0.340571343898773,35.5858189261412
46900,-0.340364187955856,35.6639428022184
47010,-0.340985685586929,35.4295655543727
47110,-0.34160715341568,35.3123797402569
47220,-0.339742720127106,35.3123797402569
47330,-0.341192841529846,35.3905036163341
47440,-0.341399997472763,35.4295655543727
47550,-0.340985685586929,35.4295655543727
47660,-0.339949876070023,35.6639428022184
47770,-0.340571343898773,35.5858189261412
47880,-0.340985685586929,35.5858189261412
47990,-0.342021465301514,35.117070050064
48100,-0.340571343898773,34.9608222979097
48210,-0.340157032012939,34.9217603598711
48320,-0.340985685586929,34.9608222979097
48430,-0.34077849984169,34.9998898555624
48530,-0.340571343898773,34.8436421034081
48640,-0.34160715341568,34.648326793601
48750,-0.340364187955856,34.6092648555624
48860,-0.340157032012939,34.6873887316396
48970,-0.34077849984169,34.8827040414467
49080,-0.340364187955856,34.8827040414467
49190,-0.34077849984169,34.6483324132152
49300,-0.340364187955856,34.5311465990994
49410,-0.341192841529846,34.4920846610608
49520,-0.34160715341568,34.5311465990994
49630,-0.339742720127106,34.6092704751766
49740,-0.340571343898773,34.4530227230223
49840,-0.341399997472763,34.2577074132152
49950,-0.340157032012939,34.3748932273309
50060,-0.342642962932587,33.9842626077168
50170,-0.341399997472763,34.0623864837939
50280,-0.340157032012939,34.0623864837939
50390,-0.340571343898773,34.2186398555624
50500,-0.34160715341568,34.2967637316396
50610,-0.34077849984169,34.0623921034081
50720,-0.339535564184189,34.2967637316396
50830,-0.340157032012939,34.4139495457553
50940,-0.339949876070023,34.648326793601
51050,-0.341192841529846,34.4920734218325
51160,-0.340985685586929,34.4920734218325
51260,-0.339742720127106,34.7264506696782
51370,-0.340157032012939,34.9998898555624
51480,-0.340571343898773,34.8827040414467
51590,-0.341814309358597,34.7655182273309
51700,-0.340364187955856,34.8436421034081
51810,-0.340985685586929,34.9608279175238
51920,-0.340157032012939,34.9608279175238
52030,-0.340157032012939,35.0780137316396
52140,-0.341399997472763,34.9998898555624
52250,-0.340985685586929,34.9217603598711
52360,-0.340571343898773,34.8436364837939
52470,-0.340364187955856,34.9608279175238
52570,-0.340571343898773,35.0389574132152
52680,-0.342021465301514,34.6873943512538
52790,-0.340571343898773,34.960833537138
52900,-0.339742720127106,35.1952107849837
53010,-0.342021465301514,35.0389630328293
53120,-0.339949876070023,35.1170869089065
53230,-0.340571343898773,35.1952164045978
53340,-0.341192841529846,35.0389630328293
53450,-0.342228621244431,34.6483380328293
53560,-0.340157032012939,34.9217772187136
53670,-0.340985685586929,34.9608391567522
53780,-0.34077849984169,34.9608391567522
53890,-0.342228621244431,34.9999067144049
53990,-0.340157032012939,35.1170925285207
54100,-0.340985685586929,35.1561544665593
54210,-0.340157032012939,35.273340280675
54320,-0.340571343898773,35.1170925285207
54430,-0.340364187955856,35.1561544665593
54540,-0.339949876070023,35.3514697763663
54650,-0.34160715341568,35.0780305904821
54760,-0.34077849984169,34.9608447763663
54870,-0.342228621244431,34.7655350861734
54980,-0.34077849984169,34.6483492720577
55090,-0.34077849984169,34.6874168297104
55200,-0.341399997472763,34.5702253959805
55300,-0.34077849984169,34.5702253959805
55410,-0.340157032012939,34.3358481481348
55520,-0.341814309358597,34.0624089622506
55630,-0.34243580698967,33.8280317144049
55740,-0.34160715341568,33.6327164045978
55850,-0.339949876070023,33.7499022187136
55960,-0.340157032012939,33.6717783426364
56070,-0.34160715341568,33.5936544665593
56180,-0.34160715341568,33.3592772187136
56290,-0.340985685586929,33.4764630328293
56400,-0.340571343898773,33.710840280675
56510,-0.339949876070023,33.710840280675
56620,-0.340364187955856,33.6327164045978
56720,-0.340571343898773,33.6327164045978
56830,-0.341192841529846,33.5936544665593
56940,-0.34160715341568,33.5936544665593
57050,-0.340571343898773,33.5545925285207
57160,-0.341399997472763,33.2420914045978
57270,-0.341192841529846,33.1248999708679
57380,-0.340985685586929,33.007708537138
57490,-0.340157032012939,33.2420857849837
57600,-0.340364187955856,33.4764630328293
57710,-0.341399997472763,33.1639619089065
57820,-0.341399997472763,32.9686465990994
57930,-0.340364187955856,32.8905227230223
58040,-0.340985685586929,32.8905227230223
58140,-0.341192841529846,32.9295846610608
58250,-0.341192841529846,32.8514551653695
58360,-0.340364187955856,33.0467704751766
58470,-0.342021465301514,32.9295846610608
58580,-0.339949876070023,33.1639619089065
58690,-0.340571343898773,33.2030238469451
58800,-0.341399997472763,33.2420857849837
58910,-0.34077849984169,33.2420857849837
59020,-0.340571343898773,33.3592772187136
59130,-0.340364187955856,33.5545925285207
59240,-0.341192841529846,33.320215280675
59350,-0.340571343898773,33.320215280675
59450,-0.340571343898773,33.3592772187136
59560,-0.340985685586929,33.3592772187136
59670,-0.341192841529846,33.5155249708679
59780,-0.340157032012939,33.6717783426364
59890,-0.34160715341568,33.5545925285207
60000,-0.340571343898773,33.5545925285207
60110,-0.341399997472763,33.5545925285207
60220,-0.34077849984169,33.5936600861734
60330,-0.340571343898773,33.632722024212
60440,-0.342021465301514,33.4764742720577
60550,-0.340364187955856,33.6327276438262
60660,-0.340157032012939,33.7499134579419
60760,-0.340364187955856,33.7889753959805
60870,-0.341192841529846,33.632722024212
60980,-0.341192841529846,33.5936600861734
61090,-0.340364187955856,33.8280373340191
61200,-0.340571343898773,33.6717895818647
61310,-0.340157032012939,33.8671048916718
61420,-0.342021465301514,33.7499190775561
61530,-0.339949876070023,33.9452343873632
61640,-0.340157032012939,33.9061724493246
61750,-0.341814309358597,33.6717952014789
61860,-0.34077849984169,33.7108627591317
61970,-0.341192841529846,33.867110511286
62080,-0.341814309358597,33.6327332634403
62180,-0.340985685586929,33.4764798916718
62290,-0.34077849984169,33.5155474493246
62400,-0.341814309358597,33.3202321395175
62510,-0.342021465301514,33.0467929536332
62620,-0.33932837843895,33.476485511286
62730,-0.341399997472763,33.2811702014789
62840,-0.341192841529846,33.0858548916718
62950,-0.341399997472763,32.9686634579419
63060,-0.340364187955856,32.9686634579419
63170,-0.341192841529846,32.8905339622506
63280,-0.34160715341568,32.6561567144049
63390,-0.342021465301514,32.4999089622506
63490,-0.341399997472763,32.5389709002892
63600,-0.340157032012939,32.460847024212
63710,-0.34243580698967,32.1092783426364
63820,-0.34243580698967,31.9139630328293
63930,-0.339949876070023,31.9530249708679
64040,-0.339742720127106,32.4999033426364
64150,-0.340985685586929,32.5780272187136
64260,-0.342228621244431,32.1874022187136
64370,-0.34160715341568,31.9920869089065
64480,-0.34160715341568,31.9920869089065
64590,-0.339949876070023,32.1483346610608
64700,-0.342021465301514,31.6795857849837
64810,-0.340157032012939,31.6795857849837
64910,-0.34077849984169,31.5233380328293
65020,-0.342021465301514,31.367090280675
65130,-0.340571343898773,31.4452197763663
65240,-0.339742720127106,31.4452197763663
65350,-0.34077849984169,31.3280339622506
65460,-0.340157032012939,31.4061578383277
65570,-0.339949876070023,31.7577209002892
65680,-0.340571343898773,31.7186589622506
65790,-0.341814309358597,31.5624112100962
65900,-0.34160715341568,31.288972024212
66010,-0.340571343898773,31.2108481481348
66120,-0.340571343898773,31.3671015199033
66220,-0.339742720127106,31.601478767749
66330,-0.34077849984169,31.5624168297104
66440,-0.34077849984169,31.4842929536332
66550,-0.34160715341568,31.2889776438262
66660,-0.340571343898773,31.5624168297104
66770,-0.340571343898773,31.5624168297104
66880,-0.34160715341568,31.210853767749
66990,-0.34160715341568,31.2889776438262
67100,-0.340985685586929,31.0936623340191
67210,-0.340157032012939,31.1717862100962
67320,-0.340571343898773,31.2889776438262
67430,-0.340571343898773,31.601478767749
67540,-0.341399997472763,31.3671015199033
67640,-0.341192841529846,31.3280395818647
67750,-0.341399997472763,31.2108481481348
67860,-0.341399997472763,31.3670959002892
67970,-0.339535564184189,31.4842817144049
68080,-0.340571343898773,31.5624112100962
68190,-0.340364187955856,31.5233492720577
68300,-0.341399997472763,31.3670959002892
68410,-0.340985685586929,31.2499044665592
68520,-0.34077849984169,31.0936567144049
68630,-0.34077849984169,31.2499100861734
68740,-0.340985685586929,31.2108425285207
68850,-0.341192841529846,31.4061522187136
68950,-0.341399997472763,31.2889607849837
69060,-0.341399997472763,31.1717693512538
69170,-0.340364187955856,31.3670846610608
69310,-0.34077849984169,31.3670846610608
69390,-0.340157032012939,31.3670846610608
69500,-0.341399997472763,31.445208537138
69610,-0.34160715341568,31.6014619089065
69720,-0.338914066553116,32.1092783426364
69830,-0.340157032012939,32.0702164045978
69940,-0.340571343898773,31.9920925285207
70050,-0.341192841529846,32.0702164045978
70160,-0.340571343898773,32.2655317144049
70270,-0.340985685586929,32.2655317144049
70370,-0.339949876070023,32.3827175285207
70480,-0.340157032012939,32.3436555904821
70590,-0.34160715341568,32.1092783426364
70700,-0.34077849984169,32.0702164045978
70810,-0.34077849984169,32.1483459002892
70920,-0.341399997472763,32.1874078383278
71030,-0.340364187955856,32.2264697763663
71140,-0.340571343898773,32.3827231481348
71250,-0.34077849984169,32.4608526438262
71360,-0.34160715341568,32.3436668297104
71470,-0.339949876070023,32.382728767749
71580,-0.341399997472763,32.1874134579419
71680,-0.340985685586929,32.2655373340191
71790,-0.34077849984169,32.382728767749
71900,-0.340985685586929,32.2655373340191
72010,-0.342228621244431,32.0311657057876
72120,-0.340364187955856,32.1874190775561
72230,-0.342021465301514,32.0311713254017
72340,-0.341814309358597,31.7577321395175
72450,-0.341399997472763,31.8749179536332
72560,-0.341399997472763,31.601478767749
72670,-0.340985685586929,31.5233492720577
72780,-0.340571343898773,31.6796026438262
72890,-0.340571343898773,31.7186645818647
73000,-0.340985685586929,31.6405350861734
73100,-0.341192841529846,31.4842817144049
73210,-0.34160715341568,31.4061578383277
73320,-0.341192841529846,31.2889664045978
73430,-0.341399997472763,31.1327130328293
73540,-0.341814309358597,30.976465280675
73650,-0.341192841529846,30.976465280675
73760,-0.340985685586929,30.8202119089065
73870,-0.341814309358597,30.7811499708679
73980,-0.341399997472763,30.6248965990994
74090,-0.340571343898773,30.7811499708679
74200,-0.341399997472763,30.663958537138
74310,-0.340571343898773,30.663958537138
74410,-0.340985685586929,30.8592682273309
74520,-0.33932837843895,31.054583537138
74630,-0.340571343898773,30.9764596610608
74740,-0.341399997472763,30.7811443512538
74850,-0.340364187955856,30.9373977230223
74960,-0.34243580698967,30.7030204751766
75070,-0.340364187955856,30.7030204751766
75180,-0.340985685586929,30.6248909794853
75290,-0.340364187955856,30.5858290414467
75400,-0.342228621244431,30.5467671034081
75510,-0.341192841529846,30.3123898555624
75620,-0.341399997472763,30.0780126077168
75730,-0.341399997472763,30.1561364837939
75830,-0.341192841529846,30.0780069881026
75940,-0.340985685586929,30.1170689261412
76050,-0.339949876070023,30.4686319881026
76160,-0.342642962932587,30.1561308641798
76270,-0.341192841529846,30.0780013684884
76380,-0.340364187955856,30.3514405543727
76490,-0.341192841529846,30.507688306527
76600,-0.341399997472763,30.1170576869129
76710,-0.340157032012939,30.3514349347585
76820,-0.340364187955856,30.507688306527
76930,-0.34160715341568,30.4686263684884
77040,-0.339742720127106,30.5858121826042
77140,-0.34077849984169,30.6639416782955
77250,-0.340157032012939,30.9373808641798
77360,-0.341192841529846,31.0936286163341
77470,-0.340157032012939,31.3280058641798
77580,-0.340985685586929,31.1717524924113
77690,-0.342642962932587,31.1326905543727
77800,-0.34077849984169,31.4451972979097
77910,-0.340571343898773,31.3280114837939
78020,-0.340985685586929,31.0936342359483
78130,-0.340364187955856,31.2108256696782
78240,-0.34077849984169,31.4842648555624
78350,-0.340985685586929,31.6014506696782
78460,-0.340157032012939,31.8748898555624
78560,-0.341192841529846,31.6405126077168
78670,-0.34160715341568,31.7186364837939
78780,-0.34243580698967,31.2889439261412
78890,-0.341192841529846,31.2108144304499
79000,-0.342021465301514,31.2108144304499
79110,-0.341399997472763,31.0545610586814
79220,-0.340985685586929,30.8201838108357
79330,-0.34160715341568,30.6639304390672
79440,-0.341814309358597,30.3514293151444
79550,-0.34077849984169,30.19518156299
79660,-0.340364187955856,30.2342435010286
79770,-0.341399997472763,30.3123673771058
79870,-0.340571343898773,30.5076826869129
79980,-0.341399997472763,30.3514293151444
80090,-0.341814309358597,30.1170520672987
80200,-0.341814309358597,29.7264270672987
80310,-0.34160715341568,29.5701736955302
80420,-0.34160715341568,29.4139203237617
80530,-0.341399997472763,29.4529822618003
80640,-0.340364187955856,29.4920441998389
80750,-0.340571343898773,29.4920441998389
80860,-0.341192841529846,29.570168075916
80970,-0.34160715341568,29.570168075916
81080,-0.340571343898773,29.6482975716074
81190,-0.340571343898773,29.5701736955302
81290,-0.34160715341568,29.3748583857231
81400,-0.341192841529846,29.2576669519932
81510,-0.340571343898773,29.4139203237617
81620,-0.34077849984169,29.492049819453
81730,-0.34160715341568,29.4529878814145
81840,-0.340571343898773,29.609241253183
81950,-0.341399997472763,29.2576781912215
82060,-0.34077849984169,29.218616253183
82170,-0.34077849984169,29.1404923771058
82280,-0.341192841529846,29.1795543151444
82390,-0.34077849984169,29.2186218727971
82500,-0.339742720127106,29.41393156299
82600,-0.340985685586929,29.3748640053373
82710,-0.34077849984169,29.41393156299
82820,-0.340364187955856,29.5701849347585
82930,-0.340985685586929,29.6483088108357
83040,-0.341814309358597,29.5701849347585
83150,-0.341192841529846,29.41393156299
83260,-0.341399997472763,29.2967401292601
83370,-0.340157032012939,29.2967401292601
83480,-0.340985685586929,29.3748640053373
83590,-0.34160715341568,29.3748640053373
83700,-0.340157032012939,29.1404867574916
83810,-0.340571343898773,29.0623628814145
83920,-0.342021465301514,28.7889236955302
84020,-0.341399997472763,28.7498617574916
84130,-0.34160715341568,28.5545464476845
84240,-0.34160715341568,28.4373606335688
84350,-0.340985685586929,28.2420453237617
84460,-0.340985685586929,28.0857919519932
84570,-0.340571343898773,28.2811072618003
84680,-0.34077849984169,28.2811072618003
84790,-0.34077849984169,28.2811072618003
84900,-0.340364187955856,28.4764225716074
85010,-0.342021465301514,28.1639214476845
85120,-0.341399997472763,28.007668075916
85230,-0.34077849984169,28.007668075916
85330,-0.340364187955856,28.2420453237617
85440,-0.339742720127106,28.2811072618003
85550,-0.340364187955856,28.4764225716074
85660,-0.34160715341568,28.3592367574916
85770,-0.340364187955856,28.4373606335688
85880,-0.341399997472763,28.3592367574916
85990,-0.341192841529846,28.5545464476845
86100,-0.340571343898773,28.515484509646
86210,-0.341192841529846,28.6717322618003
86320,-0.34077849984169,28.8670475716074
86430,-0.34077849984169,28.9842390053373
86540,-0.341192841529846,29.0233009433759
86650,-0.340364187955856,29.1404923771058
86750,-0.340364187955856,29.1795543151444
86860,-0.340985685586929,29.101424819453
86970,-0.342021465301514,28.9061151292601
87080,-0.34160715341568,28.827991253183
87190,-0.34160715341568,28.827991253183
87300,-0.34160715341568,28.7498673771058
87410,-0.339742720127106,29.0623685010286
87520,-0.341399997472763,29.1404923771058
87630,-0.339742720127106,29.41393156299
87740,-0.341814309358597,29.2576838108357
87850,-0.341814309358597,29.2576838108357
87960,-0.341399997472763,29.2576838108357
88060,-0.340571343898773,29.2576838108357
88170,-0.340985685586929,29.3358076869129
88280,-0.340985685586929,29.2576781912215
88390,-0.341399997472763,29.1795543151444
88500,-0.341814309358597,28.710799819453
88610,-0.340985685586929,28.6326703237617
88720,-0.340571343898773,28.7889236955302
88830,-0.34160715341568,28.5545464476845
88940,-0.339949876070023,29.0233009433759
89050,-0.34160715341568,28.7889236955302
89160,-0.341399997472763,28.710799819453
89270,-0.340985685586929,28.5936083857231
89380,-0.341192841529846,28.788918075916
89480,-0.341192841529846,28.788918075916
89590,-0.342021465301514,28.6717322618003
89700,-0.340985685586929,28.7498561378775
89810,-0.341399997472763,28.7107941998389
89920,-0.34243580698967,28.4373550139546
90030,-0.340985685586929,28.2420397041475
90140,-0.341399997472763,28.4764169519932
90250,-0.341192841529846,28.4764169519932
90360,-0.340571343898773,28.4373550139546
90470,-0.341399997472763,28.398293075916
90580,-0.340571343898773,28.5545464476845
90690,-0.340985685586929,28.398293075916
90790,-0.340157032012939,28.4373550139546
90900,-0.340985685586929,28.5545408280704
91010,-0.340571343898773,28.398293075916
91120,-0.341192841529846,28.3201635802247
91230,-0.341399997472763,28.085786332379
91340,-0.34077849984169,28.1639158280704
91450,-0.340571343898773,28.0857919519932
91560,-0.341814309358597,27.9295441998389
91670,-0.340985685586929,28.2420453237617
91780,-0.34077849984169,28.2420453237617
91890,-0.341814309358597,28.007668075916
92000,-0.340985685586929,28.007668075916
92110,-0.34160715341568,27.7732908280704
92210,-0.34160715341568,27.6170374563019
92320,-0.340985685586929,27.6170374563019
92430,-0.34160715341568,27.3435982704176
92540,-0.340364187955856,27.4998516421861
92650,-0.34077849984169,27.6561050139546
92760,-0.341399997472763,27.8514203237617
92870,-0.341192841529846,27.8514203237617
92980,-0.340364187955856,28.1639214476845
93090,-0.340157032012939,28.3982986955302
93200,-0.341399997472763,28.320174819453
93310,-0.34160715341568,28.320174819453
93420,-0.340364187955856,28.5936140053373
93520,-0.340364187955856,28.6717378814145
93630,-0.341192841529846,28.515484509646
93740,-0.340985685586929,28.5936083857231
93850,-0.341399997472763,28.4373550139546
93960,-0.340985685586929,28.5154788900318
94070,-0.341399997472763,28.593602766109
94180,-0.341192841529846,28.7107885802247
94290,-0.341814309358597,28.6717266421861
94400,-0.342228621244431,28.5545408280704
94510,-0.34077849984169,28.6717322618003
94620,-0.342021465301514,28.3592311378775
94730,-0.340985685586929,28.2811016421861
94840,-0.340364187955856,28.4373550139546
94940,-0.341399997472763,28.4764169519932
95050,-0.34160715341568,28.2811016421861
95160,-0.34160715341568,28.085786332379
95270,-0.34160715341568,28.085786332379
95380,-0.342021465301514,27.9295385802247
95490,-0.34077849984169,27.8904766421861
95600,-0.341192841529846,27.8123471464948
95710,-0.34077849984169,27.9686005182633
95820,-0.341192841529846,27.8514090845334
95930,-0.34077849984169,27.9686005182633
96040,-0.340364187955856,28.0467243943405
96150,-0.341399997472763,27.9295329606106
96250,-0.341399997472763,27.890471022572
96360,-0.339949876070023,28.0467187747263
96470,-0.340985685586929,27.8123415268806
96580,-0.341814309358597,27.6560937747263
96690,-0.34160715341568,27.4998404029578
96800,-0.34077849984169,27.4217165268806
96910,-0.341399997472763,27.3435926508035
97020,-0.343264430761337,27.0701534649192
97130,-0.34160715341568,26.9920295888421
97240,-0.341192841529846,27.0310915268806
97350,-0.341192841529846,26.8357762170736
97460,-0.339949876070023,27.0310915268806
97570,-0.34077849984169,27.1873448986491
97670,-0.341814309358597,26.8748437747263
97780,-0.340985685586929,26.796714279035
97890,-0.34160715341568,26.8748381551121
98000,-0.342228621244431,26.7185904029578
98110,-0.340571343898773,26.9139057127649
98220,-0.341399997472763,26.9529676508035
98330,-0.341192841529846,26.9139057127649
98440,-0.340157032012939,27.0701590845334
98550,-0.340985685586929,26.9920295888421
98660,-0.341192841529846,26.9139000931507
98770,-0.341192841529846,26.8357705974594
98880,-0.340985685586929,26.7185791637295
98980,-0.342021465301514,26.7185791637295
99090,-0.341399997472763,26.7185791637295
99200,-0.340364187955856,26.7967030398067
99310,-0.34160715341568,26.562325791961
99420,-0.340571343898773,26.4060780398067
99530,-0.342228621244431,26.0545149778452
99640,-0.340364187955856,26.2888922256909
99750,-0.339949876070023,26.3670161017681
99860,-0.342228621244431,26.2107683496137
99970,-0.341814309358597,26.093582535498
100080,-0.341192841529846,25.9763911017681
100190,-0.341814309358597,25.8592052876523
100300,-0.339742720127106,26.0545149778452
100400,-0.341399997472763,25.9373235441153
100510,-0.341814309358597,25.8201377299996
100620,-0.34160715341568,25.5857604821539
100730,-0.339535564184189,25.7420082343082
100840,-0.340985685586929,25.7420082343082
100950,-0.341399997472763,25.859194048424
101060,-0.340985685586929,25.9763798625397
101170,-0.34160715341568,25.9763798625397
101280,-0.341192841529846,26.0545037386169
101390,-0.340571343898773,25.8982559864626
101500,-0.340985685586929,25.9763798625397
101610,-0.341399997472763,25.6638787386169
101710,-0.342228621244431,25.5857548625397
101820,-0.340985685586929,25.7420026146941
101930,-0.340985685586929,25.8201264907712
102040,-0.340364187955856,25.8591884288098
102150,-0.340985685586929,25.8591884288098
102260,-0.340364187955856,25.9763798625397
102370,-0.340571343898773,26.1326332343082
102480,-0.341814309358597,26.1326332343082
102590,-0.34077849984169,26.171700791961
102700,-0.34077849984169,26.1326388539224
102810,-0.341399997472763,26.171700791961
102920,-0.34077849984169,26.0154530398067
103030,-0.34077849984169,26.1717064115751
103130,-0.340985685586929,26.2498302876523
103240,-0.340571343898773,26.3279597833436
103350,-0.341814309358597,26.2107739692279
103460,-0.340985685586929,26.2498359072665
103570,-0.340157032012939,26.6013989692279
103680,-0.34077849984169,26.6404665268806
103790,-0.341399997472763,26.6404665268806
103900,-0.340985685586929,26.9139057127649
104010,-0.34160715341568,26.7967198986491
104120,-0.340985685586929,26.8748437747263
104230,-0.342021465301514,26.718596022572
104340,-0.340985685586929,26.6404665268806
104440,-0.34160715341568,26.6014045888421
104550,-0.341399997472763,26.4451512170736
104660,-0.34160715341568,26.3279654029578
104770,-0.340985685586929,26.1717120311893
104880,-0.342228621244431,25.9373404029578
104990,-0.34160715341568,25.7420250931507
105100,-0.341192841529846,25.7420250931507
105210,-0.341192841529846,25.7810870311893
105320,-0.342021465301514,25.5467097833436
105430,-0.34077849984169,25.5076478453051
105540,-0.341192841529846,25.6248336594208
105650,-0.340364187955856,25.7420250931507
105760,-0.342228621244431,25.4685859072665
105860,-0.339742720127106,25.8592109072665
105970,-0.34077849984169,25.8982784649192
106080,-0.340571343898773,26.0935937747263
106190,-0.34077849984169,26.2498471464948
106300,-0.33932837843895,26.5623538900318
106410,-0.34305727481842,26.2889147041475
106520,-0.340571343898773,26.249852766109
106630,-0.341192841529846,26.1717232704176
106740,-0.34077849984169,26.2889147041475
106850,-0.342642962932587,26.0154755182633
106960,-0.341399997472763,25.8201602084562
107070,-0.34160715341568,25.546721022572
107170,-0.341814309358597,25.4685971464948
107280,-0.340364187955856,25.7029743943405
107390,-0.341192841529846,25.546721022572
107500,-0.340571343898773,25.5076590845334
107610,-0.34160715341568,25.4295352084562
107720,-0.340571343898773,25.5076647041475
107830,-0.342021465301514,25.3904788900318
107940,-0.341814309358597,25.2342311378775
108050,-0.340157032012939,25.4686083857231
108160,-0.340985685586929,25.5076703237617
108270,-0.342021465301514,25.4686083857231
108380,-0.341399997472763,25.6248561378775
108490,-0.341192841529846,25.5467266421861
108590,-0.34160715341568,25.6248505182633
108700,-0.340985685586929,25.6248505182633
108810,-0.34160715341568,25.3904732704176
108920,-0.34243580698967,25.1951579606106
109030,-0.340571343898773,25.3904732704176
109140,-0.341399997472763,25.4295352084562
109250,-0.339949876070023,25.742036332379
109360,-0.340571343898773,26.0154755182633
109470,-0.340985685586929,25.9764079606106
109580,-0.342021465301514,25.8201602084562
109690,-0.341192841529846,25.7420307127649
109800,-0.341192841529846,25.7420307127649
109910,-0.340364187955856,25.8201545888421
110010,-0.341192841529846,25.6639012170736
110120,-0.34077849984169,25.7810926508035
110230,-0.341399997472763,25.7810926508035
110340,-0.342021465301514,25.3904676508035
110450,-0.341814309358597,25.2342198986491
110560,-0.340985685586929,25.3904676508035
110670,-0.342021465301514,25.3123437747263
110780,-0.342228621244431,25.0389045888421
110890,-0.340985685586929,25.1170284649192
111000,-0.340157032012939,25.7029687747263
111110,-0.34243580698967,25.5467154029578
111220,-0.340364187955856,25.7029687747263
111320,-0.340985685586929,25.7420307127649
111430,-0.340157032012939,25.7029687747263
111540,-0.342021465301514,25.4685915268806
111650,-0.341399997472763,25.5467154029578
111760,-0.34077849984169,25.5857829606106
111870,-0.34077849984169,25.742036332379
111980,-0.341399997472763,25.8982840845334
112090,-0.34077849984169,25.8592221464948
112200,-0.340571343898773,26.0154755182633
112310,-0.340985685586929,26.0545374563019
112420,-0.339949876070023,26.0935993943405
112530,-0.340364187955856,26.2107908280704
112640,-0.342021465301514,26.054543075916
112740,-0.342021465301514,25.8982953237617
112850,-0.340985685586929,25.8982953237617
112960,-0.341192841529846,26.054543075916
113070,-0.34077849984169,26.171734509646
113180,-0.339949876070023,26.2498583857231
113290,-0.340571343898773,26.4451736955302
113400,-0.340157032012939,26.5232975716074
113510,-0.340571343898773,26.8357986955302
113620,-0.340364187955856,26.8357986955302
113730,-0.340985685586929,26.6404833857231
113840,-0.341192841529846,26.835793075916
113950,-0.340157032012939,27.1482941998389
114050,-0.341192841529846,27.1482941998389
114160,-0.341192841529846,27.2654800139546
114270,-0.341192841529846,26.9920408280704
114380,-0.340157032012939,27.226418075916
114490,-0.339949876070023,27.5779811378775
114600,-0.340571343898773,27.7732964476845
114710,-0.34077849984169,27.538924819453
114820,-0.341399997472763,27.4608009433759
114930,-0.341814309358597,27.3826770672987
115040,-0.340985685586929,27.3826770672987
115150,-0.340364187955856,27.6170543151444
115260,-0.34077849984169,27.6951838108357
115370,-0.339949876070023,27.8123696249514
115470,-0.340985685586929,27.8123696249514
115580,-0.341399997472763,27.8123696249514
115690,-0.341399997472763,27.9686173771058
115800,-0.341814309358597,27.8123696249514
115910,-0.341192841529846,27.7733076869129
116020,-0.341399997472763,27.5779923771058
116130,-0.341192841529846,27.5389304390672
116240,-0.341192841529846,27.3826770672987
116350,-0.340985685586929,27.3045475716074
116460,-0.341192841529846,27.4217333857231
116570,-0.341192841529846,27.3436038900318
116680,-0.340985685586929,27.304536332379
116780,-0.341399997472763,27.304536332379
116890,-0.341399997472763,27.1873448986491
117000,-0.340157032012939,27.3045307127649
117110,-0.342228621244431,27.0701590845334
117220,-0.340985685586929,26.9920295888421
117330,-0.341814309358597,26.9920295888421
117440,-0.340571343898773,27.0701590845334
117550,-0.342228621244431,26.6795340845334
117660,-0.34160715341568,26.5232807127649
117770,-0.340985685586929,26.6014045888421
117880,-0.340985685586929,26.6014045888421
117990,-0.342228621244431,26.4842187747263
118100,-0.341814309358597,26.327971022572
118200,-0.342021465301514,26.327971022572
118310,-0.340364187955856,26.4451624563019
118420,-0.341814309358597,26.4061005182633
118530,-0.340364187955856,26.6014158280704
118640,-0.34160715341568,26.6014158280704
118750,-0.341399997472763,26.5232919519932
118860,-0.342228621244431,26.5232919519932
118970,-0.341399997472763,26.5623538900318
119080,-0.34077849984169,26.6404833857231
119190,-0.340985685586929,26.6795453237617
119300,-0.341192841529846,26.835793075916
119410,-0.342021465301514,26.6014158280704
119510,-0.341399997472763,26.5623538900318
119620,-0.342228621244431,26.2107908280704
119730,-0.340985685586929,26.4451624563019
119840,-0.34160715341568,26.0935993943405
119950,-0.34243580698967,25.7810926508035
120060,-0.341192841529846,25.6639012170736
120170,-0.340571343898773,25.7029631551121
120280,-0.34077849984169,25.4295239692279
120390,-0.339949876070023,26.015464279035
120500,-0.339949876070023,26.1326500931507
120610,-0.341399997472763,26.0935881551121
120720,-0.340364187955856,26.1717120311893
120830,-0.340985685586929,26.4842131551121
120930,-0.341192841529846,26.5232750931507
121040,-0.342021465301514,26.4451512170736
121150,-0.341399997472763,26.5232750931507
121260,-0.342021465301514,26.2107739692279
121370,-0.341814309358597,26.0935881551121
121480,-0.341399997472763,25.9373347833436
121590,-0.342021465301514,25.8592109072665
121700,-0.341192841529846,25.7420194735366
121810,-0.340985685586929,25.9373291637295
121920,-0.341192841529846,26.0545149778452
122030,-0.341399997472763,25.8201377299996
122140,-0.342021465301514,25.6248280398067
122240,-0.341814309358597,25.6638899778452
122350,-0.34077849984169,25.7810814115751
122460,-0.341192841529846,25.7810814115751
122570,-0.341814309358597,25.7420194735366
122680,-0.340364187955856,25.8592109072665
122790,-0.340571343898773,26.0545262170736
122900,-0.340985685586929,26.3279654029578
123010,-0.340985685586929,26.2498359072665
123120,-0.340571343898773,26.406089279035
123230,-0.340157032012939,26.3670273409964
123340,-0.341192841529846,26.2498359072665
123450,-0.340985685586929,26.2498359072665
123560,-0.340985685586929,26.4451455974594
123660,-0.341399997472763,26.4060836594208
123770,-0.340157032012939,26.6013989692279
123880,-0.34077849984169,26.5232750931507
123990,-0.340571343898773,26.6404665268806
124100,-0.340571343898773,26.6795284649192
124210,-0.34077849984169,26.7967198986491
124320,-0.341814309358597,26.8357818366877
124430,-0.340985685586929,26.9920295888421
124540,-0.342021465301514,26.7967198986491
124650,-0.340571343898773,27.0701590845334
124760,-0.341814309358597,27.1482829606106
124870,-0.340157032012939,27.304536332379
124970,-0.341814309358597,26.9920352084562
125080,-0.341814309358597,27.1092266421861
125190,-0.341814309358597,26.8357874563019
125300,-0.34077849984169,26.8748550139546
125410,-0.34077849984169,26.7576691998389
125520,-0.340364187955856,27.0701703237617
125630,-0.340571343898773,27.2264236955302
125740,-0.341399997472763,27.1092322618003
125850,-0.341814309358597,26.9139169519932
125960,-0.340985685586929,26.9920408280704
126070,-0.34077849984169,26.9920408280704
126180,-0.342228621244431,26.6795397041475
126290,-0.34160715341568,26.5623538900318
126390,-0.34077849984169,26.4061061378775
126500,-0.341192841529846,26.249852766109
126610,-0.340364187955856,26.5623538900318
126720,-0.340364187955856,26.8748550139546
126830,-0.341192841529846,26.835793075916
126940,-0.341399997472763,26.7967311378775
127050,-0.341192841529846,26.7186016421861
127160,-0.340571343898773,26.6014158280704
127270,-0.341399997472763,26.4451624563019
127380,-0.342642962932587,25.9764079606106
127490,-0.341399997472763,25.8201545888421
127600,-0.340985685586929,25.7029631551121
127700,-0.342850118875504,25.3514000931507
127810,-0.342021465301514,25.1951523409964
127920,-0.340985685586929,25.0388989692279
128030,-0.340571343898773,25.1560904029578
128140,-0.341399997472763,25.1170284649192
128250,-0.34160715341568,25.0389045888421
128360,-0.342021465301514,24.6873415268806
128470,-0.34160715341568,24.3748404029578
128580,-0.341192841529846,24.2576489692279
128690,-0.340985685586929,24.2185814115751
128800,-0.34077849984169,24.3357728453051
128910,-0.340157032012939,24.6482739692279
129020,-0.341814309358597,24.4920262170736
129120,-0.34160715341568,24.2576489692279
129230,-0.34160715341568,24.1013955974594
129340,-0.339742720127106,24.140457535498
129450,-0.341192841529846,24.1013955974594
129560,-0.342228621244431,23.9451478453051
129670,-0.340985685586929,24.0232717213822
129780,-0.339742720127106,24.4138967213822
129890,-0.342021465301514,24.2576489692279
130000,-0.341399997472763,24.2576489692279
130110,-0.342228621244431,24.062339279035
130220,-0.34077849984169,24.1404687747263
130330,-0.342642962932587,23.8279676508035
130430,-0.341192841529846,23.8279676508035
130540,-0.340985685586929,23.8670295888421
130650,-0.34077849984169,23.9060971464948
130760,-0.341192841529846,23.9451590845334
130870,-0.342021465301514,23.8279732704176
130980,-0.341399997472763,23.593596022572
131090,-0.34160715341568,23.7107818366877
131200,-0.341814309358597,23.5545340845334
131310,-0.342228621244431,23.4764102084562
131420,-0.340571343898773,23.4764102084562
131530,-0.340985685586929,23.7107818366877
131640,-0.341192841529846,23.7889057127649
131750,-0.340985685586929,23.7889057127649
131850,-0.34305727481842,23.3982807127649
131960,-0.339949876070023,23.8279676508035
132070,-0.34077849984169,24.0232829606106
132180,-0.341192841529846,24.1795307127649
132290,-0.342021465301514,23.8670295888421
132400,-0.341399997472763,23.9451534649192
132510,-0.340364187955856,23.9451534649192
132620,-0.342642962932587,23.7498381551121
132730,-0.340985685586929,23.8279620311893
132840,-0.341814309358597,23.9060859072665
132950,-0.340364187955856,24.1014012170736
133060,-0.340985685586929,24.0623336594208
133160,-0.341192841529846,24.0232717213822
133270,-0.340571343898773,24.1404631551121
133380,-0.341814309358597,24.1795250931507
133490,-0.341192841529846,24.2185870311893
133600,-0.341814309358597,24.2967109072665
133710,-0.342021465301514,24.1014012170736
133820,-0.340985685586929,24.2185870311893
133930,-0.34077849984169,24.5310937747263
134040,-0.341814309358597,24.4139079606106
134150,-0.340985685586929,24.3357784649192
134260,-0.340157032012939,24.452964279035
134370,-0.341814309358597,24.1014012170736
134480,-0.340985685586929,23.9060859072665
134580,-0.341814309358597,23.8279620311893
134690,-0.34077849984169,23.7498381551121
134800,-0.341814309358597,23.5935904029578
134910,-0.34077849984169,23.6717198986491
135020,-0.341399997472763,23.7889057127649
135130,-0.340985685586929,23.8670295888421
135240,-0.34160715341568,23.9451534649192
135350,-0.340985685586929,24.1014012170736
135460,-0.341399997472763,24.1014012170736
135570,-0.341399997472763,24.2185870311893
135680,-0.342850118875504,23.9060859072665
135790,-0.342228621244431,23.671714279035
135890,-0.341399997472763,23.6326523409964
136000,-0.340985685586929,23.7107762170736
136110,-0.34077849984169,23.9451534649192
136220,-0.341814309358597,23.9451534649192
136330,-0.34077849984169,23.9451534649192
136440,-0.341192841529846,23.9451534649192
136550,-0.341399997472763,24.0232773409964
136660,-0.34243580698967,23.6326467213822
136770,-0.339949876070023,23.749832535498
136880,-0.340571343898773,23.8279620311893
136990,-0.340985685586929,23.8279620311893
137100,-0.340571343898773,23.8279620311893
137210,-0.34160715341568,23.5545228453051
137310,-0.340364187955856,23.7107762170736
137420,-0.341192841529846,23.671714279035
137530,-0.340985685586929,23.671714279035
137640,-0.340571343898773,23.8279676508035
137750,-0.341192841529846,23.6326523409964
137860,-0.34077849984169,23.6326523409964
137970,-0.340571343898773,23.6326523409964
138080,-0.341814309358597,23.3982750931507
138190,-0.341192841529846,23.3201455974594
138300,-0.340985685586929,23.4763933496137
138410,-0.34160715341568,23.359207535498
138520,-0.340364187955856,23.6717086594208
138620,-0.34243580698967,23.3201399778452
138730,-0.339742720127106,23.7107649778452
138840,-0.341192841529846,23.5154496680382
138950,-0.34077849984169,23.7107649778452
139060,-0.341399997472763,23.7888888539224
139170,-0.34077849984169,23.9842041637295
139280,-0.341814309358597,23.7888888539224
139390,-0.340985685586929,23.7498212962697
139500,-0.339535564184189,23.906069048424
139610,-0.34160715341568,23.7107537386169
139720,-0.34077849984169,23.8279451723468
139830,-0.342228621244431,23.7498212962697
139940,-0.340985685586929,23.7498212962697
140040,-0.34160715341568,23.5935679245012
140150,-0.340571343898773,23.906069048424
140260,-0.34077849984169,24.0623224201925
140370,-0.341192841529846,23.9841929245012
140480,-0.340985685586929,24.0232548625397
140590,-0.341192841529846,23.8670014907712
140700,-0.341192841529846,23.7107481190027
140810,-0.340571343898773,23.8279395527327
140920,-0.341192841529846,23.8670014907712
141030,-0.342228621244431,23.6716918005783
141140,-0.341814309358597,23.4373145527327
141250,-0.342021465301514,23.3201287386169
141350,-0.341399997472763,23.5545059864626
141460,-0.341399997472763,23.5545059864626
141570,-0.341399997472763,23.4763821103854
141680,-0.340157032012939,23.9841985441153
141790,-0.341814309358597,24.0232604821539
141900,-0.34077849984169,24.0623280398066
142010,-0.34077849984169,24.0232661017681
142120,-0.340571343898773,24.1795194735366
142230,-0.341814309358597,24.140457535498
142340,-0.341399997472763,24.2576433496137
142450,-0.340985685586929,24.3748291637295
142560,-0.34077849984169,24.4529586594208
142670,-0.34243580698967,24.1795194735366
142770,-0.34160715341568,24.0232661017681
142880,-0.342021465301514,23.6717030398066
142990,-0.341192841529846,23.7888888539224
143100,-0.34077849984169,23.9451422256909
143210,-0.341814309358597,23.9060802876523
143320,-0.34077849984169,23.7107705974594
143430,-0.34077849984169,23.7889000931507
143540,-0.341399997472763,23.9451478453051
143650,-0.342228621244431,23.7107762170736
143760,-0.342021465301514,23.281089279035
143870,-0.341192841529846,23.4373370311893
143980,-0.34243580698967,23.2420217213822
144080,-0.34077849984169,23.5154609072665
144190,-0.341192841529846,23.4373314115751
144300,-0.340985685586929,23.749832535498
144410,-0.341192841529846,23.749832535498
144520,-0.34160715341568,23.6326467213822
144630,-0.34077849984169,23.6326467213822
144740,-0.341399997472763,23.5935847833436
144850,-0.34160715341568,23.6717086594208
144960,-0.340985685586929,23.749832535498
145070,-0.34077849984169,23.9060859072665
145180,-0.341399997472763,23.9842097833436
145290,-0.34160715341568,24.1013955974594
145400,-0.339949876070023,24.2185814115751
145500,-0.341399997472763,24.140457535498
145610,-0.340985685586929,24.1795194735366
145720,-0.34077849984169,24.2185870311893
145830,-0.341192841529846,24.5701500931507
145940,-0.34077849984169,24.4139023409964
146050,-0.340985685586929,24.3748347833436
146160,-0.34160715341568,24.2967109072665
146270,-0.340985685586929,24.4920205974594
146380,-0.340985685586929,24.5701444735366
146490,-0.34077849984169,24.4920205974594
146600,-0.341814309358597,24.6482739692279
146710,-0.340364187955856,24.7654654029578
146810,-0.34077849984169,24.9607807127649
146920,-0.341192841529846,24.8045273409964
147030,-0.340985685586929,24.8045273409964
147140,-0.340985685586929,24.843589279035
147250,-0.342021465301514,24.5701500931507
147360,-0.341814309358597,24.5701500931507
147470,-0.341399997472763,24.5310881551121
147580,-0.340985685586929,24.6873359072665
147690,-0.342228621244431,24.6482739692279
147800,-0.341814309358597,24.4920262170736
147910,-0.340985685586929,24.4529586594208
148020,-0.341192841529846,24.5701444735366
148130,-0.340157032012939,24.7263978453051
148230,-0.342021465301514,24.3748347833436
148340,-0.34077849984169,24.5701500931507
148450,-0.341814309358597,24.4139023409964
148560,-0.341814309358597,24.4139023409964
148670,-0.341399997472763,24.2967109072665
148780,-0.342021465301514,24.2576489692279
148890,-0.340571343898773,24.2967109072665
149000,-0.34160715341568,24.2576489692279
149110,-0.340985685586929,24.2576489692279
149220,-0.34160715341568,24.2576489692279
149330,-0.341192841529846,24.2185870311893
149440,-0.339742720127106,24.5310881551121
149540,-0.341814309358597,24.452964279035
149650,-0.341192841529846,24.7654654029578
149760,-0.34077849984169,25.0389045888421
149870,-0.342021465301514,24.9217187747263
149980,-0.340985685586929,24.9217187747263
150090,-0.34077849984169,24.9217187747263
150200,-0.341399997472763,24.9998426508035
150310,-0.34077849984169,24.9998426508035
150420,-0.341399997472763,24.9607807127649
150530,-0.34077849984169,25.0779721464948
150640,-0.340985685586929,25.351411332379
150750,-0.342228621244431,24.9217243943405
150860,-0.342228621244431,24.6092232704176
150960,-0.34160715341568,24.4920374563019
151070,-0.340571343898773,24.4920374563019
151180,-0.34243580698967,24.3357840845334
151290,-0.341399997472763,24.1404687747263
151400,-0.341814309358597,24.0232829606106
151510,-0.341399997472763,23.9451590845334
151620,-0.34077849984169,23.9060971464948
151730,-0.340985685586929,23.9451590845334
151840,-0.340571343898773,23.984221022572
151950,-0.34160715341568,23.7889057127649
152060,-0.340985685586929,23.9451534649192
152170,-0.34077849984169,24.0232829606106
152270,-0.34160715341568,23.9060971464948
152380,-0.340985685586929,24.0232829606106
152490,-0.342228621244431,23.6717198986491
152600,-0.341399997472763,23.8670352084562
152710,-0.341814309358597,23.4764102084562
152820,-0.340571343898773,23.5936016421861
152930,-0.340985685586929,23.5545340845334
153040,-0.34160715341568,23.5154721464948
153150,-0.340364187955856,23.593596022572
153260,-0.341814309358597,23.593596022572
153370,-0.340157032012939,23.7498493943405
153480,-0.341192841529846,23.4373482704176
153590,-0.34077849984169,23.5936016421861
153690,-0.340985685586929,23.5545340845334
153800,-0.34077849984169,23.8279732704176
153910,-0.340985685586929,23.8279732704176
154020,-0.341814309358597,23.788911332379
154130,-0.340157032012939,23.8670352084562
154240,-0.341399997472763,23.7498437747263
154350,-0.340571343898773,23.8670352084562
154460,-0.341814309358597,23.7107874563019
154570,-0.341399997472763,23.6717255182633
154680,-0.342228621244431,23.4764158280704
154790,-0.340985685586929,23.398286332379
154900,-0.340364187955856,23.5545397041475
155000,-0.340985685586929,23.788911332379
155110,-0.342228621244431,23.7107874563019
155220,-0.340985685586929,23.9060971464948
155330,-0.34305727481842,23.593596022572
155440,-0.34160715341568,23.5545340845334
155550,-0.341399997472763,23.5545340845334
155660,-0.341399997472763,23.3201568366877
155770,-0.340985685586929,23.4764045888421
155880,-0.342021465301514,23.2420273409964
155990,-0.340364187955856,23.3201512170736
156100,-0.34160715341568,23.1248359072665
156210,-0.34305727481842,22.8904586594208
156320,-0.34160715341568,22.8513967213822
156420,-0.340985685586929,22.8513967213822
156530,-0.340364187955856,22.9295205974594
156640,-0.340571343898773,23.281089279035
156750,-0.34077849984169,23.4373426508035
156860,-0.342642962932587,23.3201512170736
156970,-0.341192841529846,23.3201512170736
157080,-0.341192841529846,23.2420217213822
157190,-0.341399997472763,23.3201455974594
157300,-0.341399997472763,23.2029541637295
157410,-0.34243580698967,22.8904474201925
157520,-0.340157032012939,23.1248246680382
157630,-0.34077849984169,23.3982638539224
157730,-0.340571343898773,23.6717030398066
157840,-0.342228621244431,23.4763933496137
157950,-0.340571343898773,23.8279620311893
158060,-0.341399997472763,23.7107705974594
158170,-0.340571343898773,23.8279620311893
158280,-0.341192841529846,23.7889000931507
158390,-0.340364187955856,23.9451534649192
158500,-0.342021465301514,23.8670295888421
158610,-0.340571343898773,23.9060915268806
158720,-0.341192841529846,23.9451534649192
158830,-0.340157032012939,24.2185926508035
158940,-0.34160715341568,24.1014068366877
159050,-0.340985685586929,24.062339279035
159150,-0.342228621244431,23.9060915268806
159260,-0.34243580698967,23.7498381551121
159370,-0.340985685586929,23.5545228453051
159480,-0.34160715341568,23.5154609072665
159590,-0.34077849984169,23.5545284649192
159700,-0.341814309358597,23.3592131551121
159810,-0.34243580698967,23.1248359072665
159920,-0.34160715341568,22.968582535498
160030,-0.34160715341568,22.8513967213822
160140,-0.341814309358597,22.8123347833436
160250,-0.341192841529846,22.7732728453051
160360,-0.340985685586929,22.7732728453051
160460,-0.339742720127106,22.968582535498
160570,-0.34160715341568,23.0076444735366
160680,-0.34160715341568,22.7732672256909
160790,-0.341814309358597,22.5779519158838
160900,-0.34160715341568,22.4998280398066
161010,-0.341399997472763,22.4217041637295
161120,-0.34077849984169,22.4607717213822
161230,-0.342228621244431,22.4217097833436
161340,-0.342228621244431,22.3435859072665
161450,-0.34077849984169,22.4607773409964
161560,-0.34160715341568,22.3435915268806
161670,-0.341814309358597,22.4217154029578
161780,-0.341192841529846,22.5389012170736
161880,-0.34160715341568,22.4217154029578
161990,-0.34160715341568,22.3435915268806
162100,-0.342021465301514,21.9920284649192
162210,-0.341399997472763,22.109214279035
162320,-0.341399997472763,21.9920228453051
162430,-0.342021465301514,21.9529609072665
162540,-0.341814309358597,21.9529609072665
162650,-0.341399997472763,21.9529609072665
162760,-0.342228621244431,21.9138989692279
162870,-0.341192841529846,21.796707535498
162980,-0.34160715341568,21.796707535498
163090,-0.340364187955856,21.9138989692279
163190,-0.341399997472763,21.9529609072665
163300,-0.341399997472763,21.9138989692279
163410,-0.341399997472763,21.6013978453051
163520,-0.341399997472763,21.6795217213822
163630,-0.342021465301514,21.5232739692279
163740,-0.340364187955856,21.6013978453051
163850,-0.340571343898773,21.8748370311893
163960,-0.342021465301514,21.6795273409964
164070,-0.34077849984169,21.6795273409964
164180,-0.341814309358597,21.6014034649192
164290,-0.34077849984169,21.6014034649192
164400,-0.34160715341568,21.5623415268806
164510,-0.340571343898773,21.6014034649192
164610,-0.339742720127106,21.8357807127649
164720,-0.34160715341568,21.9529665268806
164830,-0.341814309358597,22.0310904029578
164940,-0.341192841529846,22.109214279035
165050,-0.340571343898773,22.109214279035
165160,-0.340571343898773,22.4607829606106
165270,-0.34243580698967,22.2654676508035
165380,-0.340985685586929,22.4217154029578
165490,-0.34160715341568,22.3826534649192
165600,-0.34243580698967,22.0701467213822
165710,-0.340985685586929,22.0701467213822
165820,-0.340985685586929,21.9920172256909
165920,-0.341192841529846,22.0701411017681
166030,-0.342642962932587,21.7576399778452
166140,-0.339949876070023,21.9138877299996
166250,-0.340985685586929,22.0310735441153
166360,-0.341192841529846,21.9920116060767
166470,-0.34160715341568,22.1091974201925
166580,-0.342021465301514,21.9920116060767
166690,-0.341814309358597,21.9920116060767
166800,-0.340985685586929,21.9138821103854
166910,-0.340364187955856,22.0310735441153
167020,-0.341814309358597,21.9920116060767
167130,-0.341814309358597,21.7185724201925
167240,-0.341192841529846,21.8357582343082
167340,-0.34160715341568,21.562319048424
167450,-0.341814309358597,21.4451332343082
167560,-0.340571343898773,21.4841951723468
167670,-0.341192841529846,21.4451332343082
167780,-0.341814309358597,21.2498179245012
167890,-0.34160715341568,21.1326321103854
168000,-0.34077849984169,21.3279474201925
168110,-0.341814309358597,21.0154462962697
168220,-0.340364187955856,21.2107616060767
168330,-0.34160715341568,21.0154462962697
168440,-0.34160715341568,21.0545082343082
168550,-0.341399997472763,21.0545082343082
168650,-0.34243580698967,21.0154406766555
168760,-0.341814309358597,20.8591929245012
168870,-0.341814309358597,20.5857537386169
168980,-0.340571343898773,20.6638832343082
169090,-0.34077849984169,20.9373224201925
169200,-0.341814309358597,20.7810746680382
169310,-0.340571343898773,21.2498291637295
169420,-0.342642962932587,21.0545138539224
169530,-0.34160715341568,21.0154519158838
169640,-0.342228621244431,20.8592041637295
169750,-0.341814309358597,20.7029564115751
169860,-0.341192841529846,20.8592041637295
169970,-0.34160715341568,20.6248269158838
170070,-0.341192841529846,20.702950791961
170180,-0.34305727481842,20.702950791961
170290,-0.34077849984169,20.8592041637295
170400,-0.341814309358597,20.7029564115751
170510,-0.341192841529846,20.5467030398066
170620,-0.34077849984169,20.5076411017681
170730,-0.341192841529846,20.4295116060767
170840,-0.341814309358597,20.5857649778452
170950,-0.340985685586929,20.6248269158838
171060,-0.342021465301514,20.4685791637295
171170,-0.34243580698967,20.2732638539224
171280,-0.342228621244431,20.1170161017681
171380,-0.341399997472763,20.3123314115751
171490,-0.341814309358597,19.9998302876523
171600,-0.340571343898773,20.0388922256909
171710,-0.34160715341568,19.8435769158838
171820,-0.341814309358597,19.921700791961
171930,-0.341399997472763,19.7654474201925
172040,-0.340364187955856,19.9607627299996
172150,-0.340985685586929,19.8826332343082
172260,-0.341814309358597,19.7654474201925
172370,-0.34160715341568,19.5310701723468
172480,-0.341814309358597,19.5701321103854
172590,-0.341192841529846,19.4529406766555
172700,-0.342021465301514,19.2966929245012
172800,-0.341814309358597,18.9841918005783
172910,-0.341814309358597,18.9451298625397
173020,-0.34160715341568,18.827944048424
173130,-0.340985685586929,19.0623156766555
173240,-0.341814309358597,19.1795071103854
173350,-0.341399997472763,19.1013832343082
173460,-0.342228621244431,18.9841974201925
173570,-0.340985685586929,18.9451298625397
173680,-0.34077849984169,19.1404451723468
173790,-0.341399997472763,19.3357604821539
173900,-0.33932837843895,19.7654530398066
174010,-0.342642962932587,19.5701377299996
174110,-0.342021465301514,19.531075791961
174220,-0.341192841529846,19.531075791961
174330,-0.342021465301514,19.3357661017681
174440,-0.342228621244431,18.8670172256909
174550,-0.340571343898773,19.062332535498
174660,-0.340157032012939,19.3357717213822
174770,-0.340571343898773,19.5701489692279
174880,-0.342021465301514,19.4920250931507
174990,-0.34160715341568,19.4529631551121
175100,-0.34160715341568,19.2967097833436
175210,-0.341814309358597,19.3748336594208
175320,-0.341399997472763,19.5310814115751
175430,-0.34077849984169,19.5310814115751
175530,-0.340571343898773,19.7263967213822
175640,-0.341814309358597,19.7263967213822
175750,-0.341399997472763,19.6873347833436
175860,-0.340985685586929,19.8045205974594
175970,-0.34077849984169,19.9607739692279
176080,-0.34160715341568,20.0388978453051
176190,-0.34077849984169,20.156089279035
176300,-0.341399997472763,20.156089279035
176410,-0.342642962932587,20.0388978453051
176520,-0.340985685586929,20.1951455974594
176630,-0.341814309358597,20.1170217213822
176740,-0.34243580698967,20.0779541637295
176840,-0.34160715341568,19.9998302876523
176950,-0.342021465301514,19.9217064115751
177060,-0.341399997472763,19.7263911017681
177170,-0.341814309358597,19.6482672256909
177280,-0.34160715341568,19.6092052876523
177390,-0.34160715341568,19.5701433496137
177500,-0.342021465301514,19.452957535498
177610,-0.34160715341568,19.5310814115751
177720,-0.341192841529846,19.3748280398066
177830,-0.342021465301514,19.1013888539224
177940,-0.34305727481842,18.9060735441153
178050,-0.341399997472763,18.7888821103854
178160,-0.342021465301514,18.7498201723468
178260,-0.339742720127106,18.9451298625397
178370,-0.342021465301514,18.8670059864626
178480,-0.341399997472763,18.7107526146941
178590,-0.340985685586929,18.4763753668484
178700,-0.34160715341568,18.4763753668484
178810,-0.341192841529846,18.5935611809642
178920,-0.34243580698967,18.3591839331185
179030,-0.342228621244431,18.0466828091957
179140,-0.341399997472763,17.8904294374272
179250,-0.341192841529846,18.1248066852728
179360,-0.341192841529846,18.0857447472343
179470,-0.341192841529846,18.1638686233114
179570,-0.342228621244431,18.2029361809642
179680,-0.342228621244431,17.9685645527327
179790,-0.340571343898773,18.046694048424
179900,-0.340571343898773,18.1638854821539
180010,-0.341192841529846,18.4373246680382
180120,-0.341399997472763,18.1638854821539
180230,-0.340571343898773,18.2420149778452
180340,-0.341192841529846,18.2420149778452
180450,-0.34160715341568,18.2420149778452
180560,-0.342021465301514,18.2420149778452
180670,-0.34160715341568,18.2810769158838
180780,-0.341399997472763,18.2029530398066
180890,-0.34160715341568,17.968575791961
180990,-0.342228621244431,17.8904519158838
181100,-0.340364187955856,18.1638911017681
181210,-0.342021465301514,18.0076433496137
181320,-0.340364187955856,18.2420205974594
181430,-0.341399997472763,18.3201444735366
181540,-0.342228621244431,18.0076433496137
181650,-0.340985685586929,18.0467052876523
181760,-0.341814309358597,18.0467052876523
181870,-0.341814309358597,18.0076433496137
181980,-0.341192841529846,17.9295138539224
182090,-0.340985685586929,18.0857616060767
182200,-0.341192841529846,17.9295082343082
182300,-0.34160715341568,17.9295082343082
182410,-0.340364187955856,18.1638854821539
182520,-0.34243580698967,17.9685701723468
182630,-0.34160715341568,18.1248235441153
182740,-0.340571343898773,18.359200791961
182850,-0.340364187955856,18.6326399778452
182960,-0.342642962932587,18.2420093582311
183070,-0.340985685586929,18.2029418005783
183180,-0.341399997472763,18.2810656766555
183290,-0.343264430761337,17.7732492429256
183400,-0.340364187955856,18.2029418005783
183510,-0.34160715341568,18.2029418005783
183620,-0.34077849984169,18.4763809864626
183720,-0.34077849984169,18.6716962962697
183830,-0.340571343898773,18.7888877299996
183940,-0.342228621244431,18.6717019158838
184050,-0.341192841529846,18.6717019158838
184160,-0.340985685586929,19.0623269158838
184270,-0.340364187955856,19.140450791961
184380,-0.341192841529846,19.2576366060767
184490,-0.340985685586929,19.2966985441153
184600,-0.341192841529846,19.218569048424
184710,-0.341192841529846,19.218569048424
184820,-0.341399997472763,19.2966929245012
184930,-0.341399997472763,19.218569048424
185030,-0.341192841529846,19.3748168005783
185140,-0.340364187955856,19.7654474201925
185250,-0.340985685586929,19.999819048424
185360,-0.34160715341568,19.9607571103854
185470,-0.342642962932587,19.8045037386169
185580,-0.341814309358597,19.5701264907712
185690,-0.340571343898773,19.7654418005783
185800,-0.340985685586929,19.9216895527327
185910,-0.340364187955856,20.1170048625397
186020,-0.340985685586929,19.9998134288098
186130,-0.34160715341568,19.8826276146941
186240,-0.341814309358597,19.8826276146941
186350,-0.340364187955856,20.1170048625397
186450,-0.341814309358597,20.1170048625397
186560,-0.34160715341568,20.0388809864626
186670,-0.341399997472763,20.1560668005783
186780,-0.341399997472763,20.2341906766555
186890,-0.34077849984169,20.4295059864626
187000,-0.341192841529846,20.5076298625397
187110,-0.340571343898773,20.5857593582311
187220,-0.341192841529846,20.7029451723468
187330,-0.341192841529846,20.7420071103854
187440,-0.340157032012939,21.1326321103854
187550,-0.341814309358597,20.9763843582311
187660,-0.341192841529846,20.8982548625397
187770,-0.341399997472763,20.8982548625397
187870,-0.340985685586929,20.5857481190027
187980,-0.34160715341568,20.7810634288098
188090,-0.342021465301514,20.7810634288098
188200,-0.341192841529846,20.7810634288098
188310,-0.34160715341568,20.859187304887
188420,-0.340571343898773,21.1716884288098
188530,-0.340985685586929,21.0935589331185
188640,-0.341399997472763,20.8591816852728
188750,-0.341814309358597,20.6248044374272
188860,-0.340157032012939,20.9763674993886
188970,-0.340985685586929,21.0935533135043
189080,-0.341192841529846,21.1716771895815
189180,-0.342021465301514,21.1326152515429
189290,-0.34160715341568,21.0935533135043
189400,-0.342021465301514,20.8591760656587
189510,-0.342228621244431,20.5466749417358
189620,-0.339949876070023,20.8982380036973
189730,-0.340571343898773,21.0544913754658
189840,-0.34243580698967,20.7810521895815
189950,-0.34160715341568,20.624798817813
190060,-0.34077849984169,20.7810521895815
190170,-0.343264430761337,20.3122976938902
190280,-0.34160715341568,20.2732357558516
190390,-0.339949876070023,20.7810521895815
190500,-0.342228621244431,20.54668056135
190600,-0.341192841529846,20.6638663754658
190710,-0.340364187955856,21.0544969950799
190820,-0.342021465301514,20.9763731190027
190930,-0.340571343898773,21.249812304887
191040,-0.341399997472763,21.249812304887
191150,-0.342642962932587,21.0935589331185
191260,-0.340985685586929,21.2107447472343
191370,-0.342228621244431,21.0935589331185
191480,-0.342228621244431,21.0544969950799
191590,-0.34160715341568,21.0544969950799
191700,-0.34160715341568,20.9763731190027
191810,-0.341399997472763,21.0935589331185
191910,-0.34243580698967,21.2107447472343
192020,-0.341814309358597,21.1326208711571
192130,-0.341399997472763,21.2498066852728
192240,-0.341399997472763,20.93730556135
192350,-0.340364187955856,21.2498066852728
192460,-0.341814309358597,21.1716828091957
192570,-0.34160715341568,21.0544969950799
192680,-0.34077849984169,21.2107503668484
192790,-0.341814309358597,21.0935645527327
192900,-0.340571343898773,21.4451332343082
193010,-0.341814309358597,21.5232571103854
193120,-0.34160715341568,21.4841951723468
193230,-0.341814309358597,21.3670093582311
193330,-0.340985685586929,21.4060712962697
193440,-0.34243580698967,21.171694048424
193550,-0.340985685586929,21.4060656766555
193660,-0.34077849984169,21.6795048625397
193770,-0.341814309358597,21.4451276146941
193880,-0.34077849984169,21.4060656766555
193990,-0.340985685586929,21.4451276146941
194100,-0.342642962932587,21.2107503668484
194210,-0.340157032012939,21.2888742429256
194320,-0.341192841529846,21.2888742429256
194430,-0.340571343898773,21.4841895527327
194540,-0.34160715341568,21.5623134288098
194640,-0.34160715341568,21.5623134288098
194750,-0.341399997472763,21.5623134288098
194860,-0.340571343898773,21.7576287386169
194970,-0.341814309358597,21.8357526146941
195080,-0.341814309358597,21.5623134288098
195190,-0.34077849984169,21.7966906766555
195300,-0.34160715341568,21.5623134288098
195410,-0.341192841529846,21.6013753668484
195520,-0.341399997472763,21.7576231190027
195630,-0.341192841529846,21.7185611809642
195740,-0.342021465301514,21.6794992429256
195850,-0.342021465301514,21.640437304887
195960,-0.34243580698967,21.4060600570413
196060,-0.340985685586929,21.4060600570413
196170,-0.34160715341568,21.3279361809642
196280,-0.340157032012939,21.6013753668484
196390,-0.34077849984169,21.5232514907712
196500,-0.341192841529846,21.7576287386169
196610,-0.341192841529846,21.8357526146941
196720,-0.341399997472763,21.6794992429256
196830,-0.340571343898773,21.640437304887
196940,-0.342021465301514,21.7576287386169
197050,-0.34077849984169,21.7966962962697
197160,-0.342021465301514,21.6795104821539
197270,-0.341399997472763,22.0310735441153
197370,-0.340985685586929,21.9138821103854
197480,-0.34243580698967,21.7576287386169
197590,-0.339742720127106,21.9529384288098
197700,-0.340157032012939,22.0701242429256
197810,-0.34243580698967,21.71855556135
197920,-0.341192841529846,21.9138652515429
198030,-0.341814309358597,21.7966794374272
198140,-0.341814309358597,21.6404316852728
198250,-0.34077849984169,21.5623078091957
198360,-0.341399997472763,21.5232458711571
198470,-0.341814309358597,21.3669981190027
198580,-0.342021465301514,21.2107503668484
198690,-0.341814309358597,21.0935645527327
198790,-0.34160715341568,21.0545026146941
198900,-0.342021465301514,20.9373168005783
199010,-0.341192841529846,20.9373168005783
199120,-0.341192841529846,20.7810634288098
199230,-0.340571343898773,20.8591929245012
199340,-0.342228621244431,20.7420071103854
199450,-0.341399997472763,20.9763843582311
199560,-0.341814309358597,20.9763843582311
199670,-0.341192841529846,20.8591929245012
199780,-0.340571343898773,20.9373224201925
199890,-0.34160715341568,20.7029451723468
200000,-0.34160715341568,20.5857593582311
200100,-0.341192841529846,20.6638832343082
200210,-0.34243580698967,20.5466918005783
200320,-0.342228621244431,20.1951287386169
200430,-0.342021465301514,20.1560668005783
200540,-0.34077849984169,20.3123201723468
200650,-0.341192841529846,20.3513821103854
200760,-0.341399997472763,20.3513821103854
200870,-0.341399997472763,20.2341906766555
200980,-0.341399997472763,20.1951287386169
201090,-0.341399997472763,20.0388753668484
201200,-0.34160715341568,19.9607514907712
201310,-0.342228621244431,19.7654418005783
201420,-0.342228621244431,19.3748168005783
201520,-0.341399997472763,19.4529406766555
201640,-0.34160715341568,19.3748168005783
201740,-0.342021465301514,19.2576309864626
201850,-0.341814309358597,19.1013832343082
201960,-0.341192841529846,19.1795071103854
202070,-0.34077849984169,19.4138843582311
202180,-0.34160715341568,19.3357604821539
202290,-0.342021465301514,19.2576366060767
202400,-0.341399997472763,19.1013832343082
202510,-0.341399997472763,19.0232593582311
202620,-0.341399997472763,19.0232593582311
202730,-0.341399997472763,19.1013832343082
202830,-0.342021465301514,18.7498201723468
202940,-0.340985685586929,18.7498201723468
203050,-0.34243580698967,18.5154429245012
203160,-0.340985685586929,18.7107526146941
203270,-0.342850118875504,18.4763753668484
203380,-0.342021465301514,18.4763753668484
203490,-0.340985685586929,18.7107469950799
203600,-0.342021465301514,18.3201219950799
203710,-0.34160715341568,18.1248066852728
203820,-0.341399997472763,18.3201219950799
203930,-0.341192841529846,18.3982458711571
204040,-0.34160715341568,18.2419924993886
204150,-0.340571343898773,18.7498089331185
204250,-0.340985685586929,18.8669947472343
204360,-0.342021465301514,18.4763697472343
204470,-0.341814309358597,18.5544936233114
204580,-0.340985685586929,18.59355556135
204690,-0.340157032012939,18.6326174993886
204800,-0.34160715341568,18.7107413754658
204910,-0.341814309358597,18.4763641276201
205020,-0.34160715341568,18.4373021895815
205130,-0.342021465301514,18.5544936233114
205240,-0.341814309358597,18.3982458711571
205350,-0.34160715341568,18.5154316852728
205460,-0.341192841529846,18.7107413754658
205560,-0.342021465301514,18.6326174993886
205670,-0.341192841529846,18.7107413754658
205780,-0.341192841529846,18.7498033135043
205890,-0.34160715341568,18.9060566852728
206000,-0.340985685586929,19.0623044374272
206110,-0.342021465301514,18.9451186233114
206220,-0.341399997472763,18.9451186233114
206330,-0.340985685586929,18.8279271895815
206440,-0.342642962932587,18.671673817813
206550,-0.341399997472763,18.7107357558516
206660,-0.340364187955856,18.7888596319288
206770,-0.34160715341568,18.8279215699673
206880,-0.342021465301514,18.5544823840831
206980,-0.340571343898773,18.7888596319288
207090,-0.34160715341568,18.7888596319288
207200,-0.34160715341568,18.8279215699673
207310,-0.340985685586929,18.8279215699673
207420,-0.342021465301514,18.9060510656587
207530,-0.341192841529846,18.8669891276201
207640,-0.341192841529846,18.7888596319288
207750,-0.34160715341568,18.8279215699673
207860,-0.342228621244431,18.5544823840831
207970,-0.340985685586929,18.5544823840831
208080,-0.341399997472763,18.7888596319288
208190,-0.340571343898773,18.7107357558516
208290,-0.342228621244431,18.5154260656587
208400,-0.34243580698967,18.1638573840831
208510,-0.341399997472763,18.2029193221217
208620,-0.341814309358597,18.1638573840831
208730,-0.340985685586929,18.2419812601603
208840,-0.339535564184189,18.4372909503532
208950,-0.341814309358597,18.4372909503532
209060,-0.341399997472763,18.5154148264303
209170,-0.341192841529846,18.437285330739
209280,-0.341814309358597,18.3982233927004
209390,-0.339949876070023,18.6326006405461
209500,-0.341192841529846,18.6716625785847
209610,-0.341399997472763,18.6326006405461
209710,-0.341399997472763,18.7497864546619
209820,-0.341399997472763,18.8669722687776
209930,-0.342021465301514,18.9451017644689
210040,-0.341399997472763,18.8669778883918
210150,-0.342228621244431,18.749792074276
210260,-0.341399997472763,18.5154148264303
210370,-0.34077849984169,18.5154148264303
210480,-0.34160715341568,18.4372909503532
210590,-0.341192841529846,18.4372909503532
210700,-0.342021465301514,18.3201051362374
210810,-0.341192841529846,18.2029137025075
210920,-0.34160715341568,18.2810375785847
211020,-0.34160715341568,18.1247842068162
211130,-0.341399997472763,18.2419700209319
211240,-0.341399997472763,18.2419700209319
211350,-0.340157032012939,18.3982233927004
211460,-0.341399997472763,18.5935387025075
211570,-0.341192841529846,18.3200995166233
211680,-0.34077849984169,18.2029137025075
211790,-0.341192841529846,18.4372909503532
211900,-0.340985685586929,18.4763528883918
212010,-0.340985685586929,18.6326006405461
212120,-0.34077849984169,18.8279159503532
212230,-0.34160715341568,18.6716625785847
212340,-0.340364187955856,18.8669778883918
212440,-0.340985685586929,19.0232256405461
212550,-0.34160715341568,19.1013495166233
212660,-0.341192841529846,19.218535330739
212770,-0.341192841529846,19.2966592068162
212880,-0.341399997472763,19.4138450209319
212990,-0.340985685586929,19.4529069589705
213100,-0.342021465301514,19.2966592068162
213210,-0.340985685586929,19.2185297111249
213320,-0.340985685586929,19.4529013393564
213430,-0.342642962932587,19.2185240915107
213540,-0.340364187955856,19.4919632773949
213650,-0.340985685586929,19.5310252154335
213750,-0.340985685586929,19.4528957197422
213860,-0.341814309358597,19.4138337817036
213970,-0.340364187955856,19.6482110295493
214080,-0.341399997472763,19.6091490915107
214190,-0.340985685586929,19.8825882773949
214300,-0.34160715341568,19.9997740915107
214410,-0.34077849984169,20.2341513393564
214520,-0.341192841529846,20.156021843665
214630,-0.341192841529846,20.156021843665
214740,-0.34077849984169,20.2732132773949
214850,-0.34243580698967,20.0778979675879
214960,-0.341399997472763,20.0778979675879
215070,-0.34243580698967,19.8825826577808
215170,-0.342021465301514,19.8044587817036
215280,-0.34160715341568,19.9216445958194
215390,-0.340985685586929,20.1560162240509
215500,-0.340985685586929,20.234140100128
215610,-0.342021465301514,20.1560162240509
215720,-0.342228621244431,20.1169542860123
215830,-0.341814309358597,20.1169542860123
215940,-0.34077849984169,20.1950837817036
216050,-0.340985685586929,20.1560162240509
216160,-0.340985685586929,20.2732020381666
216270,-0.341814309358597,20.3122639762052
216380,-0.341399997472763,20.3122639762052
216480,-0.34160715341568,20.2732020381666
216590,-0.342228621244431,20.1169542860123
216700,-0.34160715341568,20.0778923479737
216810,-0.341399997472763,20.1950781620895
216920,-0.340364187955856,20.3122695958194
217030,-0.342228621244431,20.3513371534721
217140,-0.34243580698967,20.0778979675879
217250,-0.342228621244431,20.1950894013178
217360,-0.341399997472763,20.3122752154335
217470,-0.341399997472763,20.2341513393564
217580,-0.34160715341568,20.3122752154335
217690,-0.34160715341568,20.3122752154335
217800,-0.342021465301514,20.1950894013178
217900,-0.341192841529846,20.1950894013178
218010,-0.342021465301514,20.1169655252406
218120,-0.341192841529846,19.9997740915107
218230,-0.342228621244431,19.7654024632792
218340,-0.341192841529846,19.9216502154335
218450,-0.339949876070023,20.2732132773949
218560,-0.340985685586929,20.2732132773949
218670,-0.342021465301514,19.9216502154335
218780,-0.342021465301514,19.8435263393564
218890,-0.341814309358597,19.8435263393564
219000,-0.341814309358597,19.8044644013178
219110,-0.34160715341568,19.8825882773949
219210,-0.341399997472763,19.9607121534721
219320,-0.342228621244431,19.8435263393564
219430,-0.342021465301514,19.687278587202
219540,-0.341399997472763,19.8044644013178
219650,-0.342228621244431,19.6091547111249
219760,-0.341399997472763,19.5700927730863
219870,-0.34243580698967,19.4138394013178
219980,-0.341192841529846,19.3747774632792
220090,-0.341814309358597,19.4138394013178
220200,-0.340571343898773,19.5700927730863
220310,-0.340985685586929,19.5700927730863
220420,-0.341399997472763,19.8044700209319
220530,-0.342021465301514,19.6872842068162
220630,-0.341192841529846,19.5310308350477
220740,-0.341399997472763,19.5700927730863
220850,-0.34077849984169,19.8044700209319
220960,-0.341399997472763,19.6482166491634
221070,-0.342021465301514,19.5700927730863
221180,-0.34077849984169,19.7263461448548
221290,-0.341192841529846,19.6872842068162
221400,-0.342021465301514,19.6872842068162
221510,-0.341399997472763,19.6482222687776
221620,-0.341814309358597,0
221730,-0.34160715341568,100
221840,-0.340157032012939,24.8044240815336
221940,-0.340364187955856,25.0974016121491
222050,-0.341192841529846,25.195056106026
222160,-0.341814309358597,24.6091150937798
222270,-0.341192841529846,25.0973875631642
222380,-0.341814309358597,25.3903650937798
222490,-0.342021465301514,33.4197795116688
222600,-0.341814309358597,33.4197795116688
222710,-0.34077849984169,33.506596167679
222820,-0.34160715341568,32.6385419996803
222930,-0.34160715341568,32.725346167679
223040,-0.341399997472763,32.725346167679
223150,-0.341814309358597,32.4649336636829
223260,-0.341192841529846,32.725346167679
223360,-0.342021465301514,31.8572919996803
223470,-0.341192841529846,31.8572919996803
223580,-0.34160715341568,31.7704878316816
223690,-0.34160715341568,31.6836836636829
223800,-0.34160715341568,31.5968794956841
223910,-0.341192841529846,31.944096167679
224020,-0.34160715341568,31.8572919996803
224130,-0.341192841529846,32.2913128396739
224240,-0.34077849984169,32.5517378316816
224350,-0.341192841529846,32.3781170076726
224460,-0.340985685586929,32.6385295116688
224570,-0.341192841529846,32.6385295116688
224670,-0.342021465301514,32.6385295116688
224780,-0.340571343898773,32.8989545036765
224890,-0.341814309358597,32.8121503356778
225000,-0.341814309358597,32.725346167679
225110,-0.340571343898773,33.0725753276854
225220,-0.34160715341568,32.9857711596867
225330,-0.34160715341568,32.3781294956841
225440,-0.341399997472763,32.3781294956841
225550,-0.34160715341568,32.2045211596867
225660,-0.342021465301514,31.6836836636829
225770,-0.341192841529846,31.6836836636829
225880,-0.339949876070023,28.9059914977486
225990,-0.340985685586929,28.9059914977486
226090,-0.341192841529846,28.7497325063659
226200,-0.34160715341568,28.7497325063659
226310,-0.343264430761337,54.7851474693845
226420,-0.341192841529846,54.736320222446
226530,-0.342021465301514,54.6386657285691
226640,-0.342228621244431,54.3945294938769
226750,-0.341814309358597,54.2480477530616
226860,-0.34077849984169,54.3945365183693
226970,-0.341192841529846,54.3457092714309
227080,-0.342228621244431,54.2968820244924
227190,-0.341399997472763,54.1992275306155
227300,-0.34077849984169,54.2480618020464
227400,-0.342021465301514,54.3945505673542
227510,-0.341399997472763,54.1504073081695
227620,-0.34160715341568,54.0039255673542
227730,-0.342021465301514,53.759789332662
227840,-0.340985685586929,53.9550983204158
227950,-0.34160715341568,53.6621278142926
228060,-0.341399997472763,53.6621278142926
228170,-0.341399997472763,53.5644733204158
228280,-0.341814309358597,53.5156460734773
228390,-0.34160715341568,53.3203300612311
228500,-0.341814309358597,53.1738483204158
228610,-0.34243580698967,52.8808778142926
228720,-0.34160715341568,52.6855618020464
228820,-0.34077849984169,53.0761938265389
228930,-0.341192841529846,53.1250210734773
229040,-0.342228621244431,53.1738553449082
229150,-0.341399997472763,53.3203370857235
229260,-0.34077849984169,53.5156530979698
229370,-0.341814309358597,53.320344110216
229480,-0.341399997472763,53.2226896163391
229590,-0.342228621244431,53.1738623694006
229700,-0.34160715341568,53.320344110216
229810,-0.342021465301514,53.2715168632775
229920,-0.340571343898773,53.320344110216
230030,-0.340571343898773,53.4180056285853
230130,-0.341399997472763,53.3203511347084
230240,-0.341399997472763,53.4180056285853
230350,-0.340985685586929,53.5156601224622
230460,-0.341814309358597,53.4668328755238
230570,-0.339949876070023,54.0039396163391
230680,-0.341814309358597,53.9551123694006
230790,-0.341814309358597,53.8574578755238
230900,-0.342021465301514,53.4668328755238
231010,-0.341192841529846,53.710969110216
231120,-0.341192841529846,54.0039396163391
231230,-0.341192841529846,54.2480758510313
231340,-0.341399997472763,54.2480758510313
231450,-0.341399997472763,54.2480758510313
231550,-0.341192841529846,54.3457303449082
231660,-0.341814309358597,54.2969030979698
231770,-0.342850118875504,54.1015870857235
231880,-0.341399997472763,54.0527598387851
231990,-0.341399997472763,54.1992415796004
232100,-0.341399997472763,54.150414332662
232210,-0.341814309358597,54.2480688265389
232320,-0.341399997472763,54.1992415796004
232430,-0.34077849984169,54.0039325918466
232540,-0.341399997472763,53.9062780979698
232650,-0.341814309358597,53.9551053449082
232760,-0.341814309358597,54.0039325918466
232860,-0.34077849984169,54.2480758510313
232970,-0.342228621244431,54.1504213571544
233080,-0.34160715341568,54.1504213571544
233190,-0.341814309358597,54.0527668632775
233300,-0.340985685586929,54.3457303449082
233410,-0.340985685586929,54.5898665796004
233520,-0.341192841529846,54.6386938265389
233630,-0.341399997472763,54.8340028142926
233740,-0.34243580698967,54.589859555108
233850,-0.34160715341568,54.7851755673542
233960,-0.342021465301514,54.5898665796004
234070,-0.341192841529846,54.7363483204158
234180,-0.340985685586929,54.6386868020464
234280,-0.341399997472763,54.5410323081695
234390,-0.341192841529846,54.589859555108
234500,-0.340985685586929,54.8339957898002
234610,-0.341399997472763,54.7851685428618
234720,-0.340571343898773,54.980484555108
234830,-0.341399997472763,54.8339957898002
234940,-0.341814309358597,54.7363412959233
235050,-0.342021465301514,54.7363412959233
235160,-0.341399997472763,54.5898525306155
235270,-0.341399997472763,54.5410252836771
235380,-0.340364187955856,54.9316502836771
235490,-0.341814309358597,54.8339957898002
235590,-0.341399997472763,54.9316502836771
235700,-0.342228621244431,54.7851685428618
235810,-0.342021465301514,54.3457162959233
235920,-0.342228621244431,53.9062640489849
236030,-0.340157032012939,54.1504073081695
236140,-0.34160715341568,54.199234555108
236250,-0.340985685586929,54.2480618020464
236360,-0.341399997472763,54.3457162959233
236470,-0.341814309358597,54.3945435428618
236580,-0.34243580698967,54.248054777554
236690,-0.34160715341568,54.0527387653078
236800,-0.340157032012939,54.3945365183693
236910,-0.34160715341568,54.3945365183693
237010,-0.340985685586929,54.4921910122462
237120,-0.342021465301514,54.4433637653078
237230,-0.340985685586929,54.4921910122462
237340,-0.342228621244431,54.4433637653078
237450,-0.341814309358597,54.2968820244924
237560,-0.34160715341568,54.2968820244924
237670,-0.34160715341568,54.2968820244924
237780,-0.34160715341568,54.2968820244924
237890,-0.341399997472763,54.248054777554
238000,-0.342021465301514,54.1504002836771
238110,-0.341814309358597,54.0039185428618
238220,-0.34243580698967,53.6132865183693
238320,-0.341192841529846,53.6132865183693
238430,-0.341192841529846,53.5644592714309
238540,-0.341192841529846,53.5644592714309
238650,-0.342021465301514,53.5644592714309
238760,-0.342021465301514,53.2226615183693
238870,-0.341814309358597,53.2226615183693
238980,-0.340571343898773,53.5156320244924
239090,-0.340985685586929,53.4179705061231
239200,-0.341814309358597,53.3691432591847
239310,-0.34160715341568,53.3691432591847
239420,-0.341814309358597,53.2714887653078
239530,-0.341192841529846,53.3691432591847
239640,-0.34160715341568,53.4667977530616
239740,-0.34305727481842,53.0273455061231
239850,-0.343264430761337,52.2460955061231
239960,-0.34077849984169,52.294929777554
240070,-0.34160715341568,52.1972752836771
240180,-0.34160715341568,52.1972752836771
240290,-0.341814309358597,52.5390730367387
240400,-0.341814309358597,52.3925912959233
240510,-0.341192841529846,52.5879002836771
240620,-0.34160715341568,52.7343820244924
240730,-0.341399997472763,52.8320365183693
240840,-0.342850118875504,52.34375
240950,-0.340571343898773,52.4902387653078
241050,-0.34160715341568,52.6367205061231
241160,-0.341814309358597,52.5390660122462
241270,-0.34077849984169,52.5390660122462
241380,-0.34077849984169,52.8320365183693
241490,-0.342021465301514,52.685554777554
241600,-0.341399997472763,52.7343820244924
241710,-0.341814309358597,52.7832092714309
241820,-0.34160715341568,52.6367275306155
241930,-0.341192841529846,52.7343820244924
242040,-0.342228621244431,52.5390730367387
242150,-0.341399997472763,52.5390730367387
242260,-0.340985685586929,52.7343820244924
242370,-0.341399997472763,52.7832092714309
242470,-0.341399997472763,52.8808637653078
242580,-0.34160715341568,53.076179777554
242690,-0.340985685586929,53.2226615183693
242800,-0.342642962932587,52.7832022469384
242910,-0.342021465301514,52.5878932591847
243020,-0.341399997472763,52.7832022469384
243130,-0.339949876070023,53.125
243240,-0.341192841529846,53.0273384816307
243350,-0.342021465301514,52.9785112346922
243460,-0.341399997472763,52.9785112346922
243570,-0.342228621244431,52.9785112346922
243680,-0.34077849984169,53.1738272469384
243780,-0.342642962932587,53.0273384816307
243890,-0.341399997472763,52.8320224693845
244000,-0.341399997472763,52.6367064571382
244110,-0.342021465301514,52.4902247163229
244220,-0.34077849984169,52.6367134816307
244330,-0.34160715341568,52.4902317408153
244440,-0.340985685586929,52.6855407285691
244550,-0.341192841529846,52.392570222446
244660,-0.342228621244431,52.2949157285691
244770,-0.339949876070023,52.7343679755076
244880,-0.341814309358597,52.783195222446
244990,-0.34160715341568,52.6855407285691
245100,-0.341399997472763,52.6367134816307
245200,-0.341192841529846,52.6367134816307
245310,-0.340571343898773,52.8320294938769
245420,-0.341399997472763,52.8320294938769
245530,-0.341192841529846,52.8320294938769
245640,-0.342021465301514,52.7832022469384
245750,-0.341192841529846,53.1738272469384
245860,-0.34077849984169,53.3203160122462
245970,-0.341399997472763,53.3203160122462
246080,-0.340571343898773,53.5156320244924
246190,-0.34077849984169,53.7597752836771
246300,-0.341399997472763,53.7597752836771
246410,-0.341814309358597,53.5156320244924
246510,-0.341814309358597,53.4179775306155
246620,-0.341814309358597,53.4179775306155
246730,-0.34077849984169,53.6621207898002
246840,-0.342021465301514,53.3691502836771
246950,-0.340985685586929,53.6621137653078
247060,-0.342021465301514,53.5644592714309
247170,-0.340985685586929,53.7597682591847
247280,-0.340985685586929,53.7597682591847
247390,-0.34077849984169,53.8086025306155
247500,-0.34160715341568,53.7109480367387
247610,-0.34077849984169,53.8574368020464
247720,-0.341399997472763,54.1015800612311
247830,-0.340157032012939,54.4433778142926
247930,-0.341814309358597,54.4922050612311
248040,-0.340985685586929,54.5410323081695
248150,-0.342021465301514,54.2968960734773
248260,-0.342850118875504,53.9550983204158
248370,-0.341814309358597,53.8086165796004
248480,-0.340157032012939,54.0039325918466
248590,-0.341192841529846,54.0527598387851
248700,-0.34243580698967,53.6133005673542
248810,-0.34077849984169,53.759789332662
248920,-0.34243580698967,53.6133005673542
249030,-0.341192841529846,53.808609555108
249140,-0.341192841529846,53.8574368020464
249240,-0.342021465301514,53.7109550612311
249350,-0.34160715341568,53.417984555108
249460,-0.34160715341568,53.4668118020464
249570,-0.341192841529846,53.5156390489849
249680,-0.341192841529846,53.7597752836771
249790,-0.34160715341568,53.857429777554
249900,-0.341814309358597,53.9550842714309
250010,-0.342021465301514,53.5156320244924
250120,-0.341814309358597,53.466804777554
250230,-0.34160715341568,53.3203230367387
250340,-0.341814309358597,53.2226685428618
250450,-0.341399997472763,53.3203230367387
250560,-0.34077849984169,53.7109550612311
250660,-0.341399997472763,53.7597823081695
250770,-0.34160715341568,53.417984555108
250880,-0.34160715341568,53.417984555108
250990,-0.341814309358597,53.2226755673542
251100,-0.341192841529846,53.417984555108
251210,-0.340364187955856,53.5644733204158
251320,-0.341814309358597,53.6621278142926
251430,-0.342021465301514,53.6133005673542
251540,-0.342228621244431,53.4668188265389
251650,-0.340364187955856,53.759789332662
251760,-0.341399997472763,53.8086165796004
251870,-0.341192841529846,53.8574438265389
251970,-0.340571343898773,54.1992415796004
252080,-0.340985685586929,54.3945505673542
252190,-0.340985685586929,54.7363483204158
252300,-0.341399997472763,54.6875210734773
252410,-0.342228621244431,54.4433848387851
252520,-0.341399997472763,54.3945575918466
252630,-0.34077849984169,54.6875280979698
252740,-0.341399997472763,54.8340098387851
252850,-0.341399997472763,54.931664332662
252960,-0.34160715341568,54.6875210734773
253070,-0.340985685586929,54.6875210734773
253180,-0.341192841529846,54.8340028142926
253290,-0.34077849984169,55.0293188265389
253390,-0.339121222496033,55.6640870857235
253500,-0.340985685586929,55.712914332662
253610,-0.342228621244431,55.5664325918466
253720,-0.340985685586929,56.0547120857235
253830,-0.341192841529846,56.5429915796004
253940,-0.340985685586929,56.4941573081695
254050,-0.34160715341568,56.4941573081695
254160,-0.340985685586929,56.6406390489849
254270,-0.340985685586929,56.8359480367387
254380,-0.341192841529846,56.982429777554
254490,-0.341192841529846,56.982429777554
254600,-0.341399997472763,57.0312570244924
254700,-0.342021465301514,56.8847752836771
254810,-0.342021465301514,57.0800912959233
254920,-0.341399997472763,56.8847752836771
255030,-0.34077849984169,57.0800912959233
255140,-0.342021465301514,57.0312640489849
255250,-0.341399997472763,56.8847752836771
255360,-0.34160715341568,56.6894592714309
255470,-0.342021465301514,56.6894592714309
255580,-0.34160715341568,56.6406320244924
255690,-0.341399997472763,56.7382865183693
255800,-0.340571343898773,56.982429777554
255910,-0.34160715341568,56.8847752836771
256020,-0.341399997472763,57.0800842714309
256120,-0.340985685586929,57.1777387653078
256230,-0.340985685586929,57.1777387653078
256340,-0.341192841529846,57.2265660122462
256450,-0.341814309358597,57.1289115183693
256560,-0.34243580698967,56.9335955061231
256670,-0.341192841529846,56.8847682591847
256780,-0.340985685586929,57.2753932591847
256890,-0.341814309358597,57.3242205061231
257000,-0.34305727481842,56.9335955061231
257110,-0.340985685586929,56.6894522469384
257220,-0.34160715341568,56.5917977530616
257330,-0.34077849984169,56.8847682591847
257430,-0.340364187955856,57.1289115183693
257540,-0.342228621244431,57.1289115183693
257650,-0.341192841529846,57.03125
257760,-0.341399997472763,57.3242205061231
257870,-0.342228621244431,57.1289115183693
257980,-0.34077849984169,57.2754002836771
258090,-0.341192841529846,57.4707092714309
258200,-0.341814309358597,57.2265660122462
258310,-0.340571343898773,57.4707092714309
258420,-0.340985685586929,57.4707092714309
258530,-0.341399997472763,57.4218820244924
258640,-0.341192841529846,57.6660182591847
258750,-0.341192841529846,57.3730477530616
258850,-0.341814309358597,57.3730477530616
258960,-0.342228621244431,57.2265660122462
259070,-0.341192841529846,57.2753932591847
259180,-0.34077849984169,57.373054777554
259290,-0.341192841529846,57.2265660122462
259400,-0.34243580698967,56.9824227530616
259510,-0.34160715341568,56.8847682591847
259620,-0.342228621244431,56.8359410122462
259730,-0.341814309358597,56.6894592714309
259840,-0.341399997472763,56.5429705061231
259950,-0.34160715341568,56.4941432591847
260060,-0.342021465301514,56.1523455061231
260160,-0.34160715341568,55.9570294938769
260270,-0.34243580698967,55.7128862346922
260380,-0.34160715341568,55.7617134816307
260490,-0.341399997472763,55.8593679755076
260600,-0.34160715341568,55.908195222446
260710,-0.342021465301514,55.6152247163229
260820,-0.34160715341568,55.7128792101998
260930,-0.34077849984169,55.7617134816307
261040,-0.342228621244431,55.7128862346922
261150,-0.342228621244431,55.4199227530616
261260,-0.342021465301514,55.1757865183693
261370,-0.341814309358597,54.9316432591847
261480,-0.342021465301514,54.8339887653078
261580,-0.34160715341568,54.6386727530616
261690,-0.34160715341568,54.5898455061231
261800,-0.341814309358597,54.1992205061231
261910,-0.341399997472763,54.296875
262020,-0.34243580698967,53.9550772469384
262130,-0.34160715341568,54.0527317408153
262240,-0.340571343898773,54.5898455061231
262350,-0.34077849984169,54.8339887653078
262460,-0.341399997472763,54.5410182591847
262570,-0.341814309358597,54.3945365183693
262680,-0.34160715341568,54.5898525306155
262790,-0.34160715341568,54.3945365183693
262890,-0.341192841529846,54.6875070244924
263000,-0.340985685586929,54.7363342714309
263110,-0.341399997472763,54.6875070244924
263220,-0.340985685586929,54.9316432591847
263330,-0.340571343898773,55.1757865183693
263440,-0.34160715341568,55.1757865183693
263550,-0.341192841529846,55.1757865183693
263660,-0.341814309358597,55.029304777554
263770,-0.34243580698967,54.8339887653078
263880,-0.342228621244431,54.7363342714309
263990,-0.340985685586929,54.9804705061231
264100,-0.339742720127106,55.46875
264210,-0.340985685586929,55.6152317408153
264310,-0.342228621244431,55.5175772469384
264420,-0.340571343898773,55.7128932591847
264530,-0.340985685586929,55.6640589877538
264640,-0.342021465301514,55.5175772469384
264750,-0.34077849984169,55.7128932591847
264860,-0.341814309358597,55.6640660122462
264970,-0.342228621244431,55.5664115183693
265080,-0.341192841529846,55.5664115183693
265190,-0.341192841529846,55.3710955061231
265300,-0.341192841529846,55.5175772469384
265410,-0.34160715341568,55.6152317408153
265520,-0.34077849984169,55.9570294938769
265620,-0.341192841529846,55.7617134816307
265730,-0.34160715341568,55.7128862346922
265840,-0.34160715341568,55.6152317408153
265950,-0.341814309358597,55.3222612346922
266060,-0.34077849984169,55.3710955061231
266170,-0.34160715341568,55.2246137653078
266280,-0.341399997472763,55.2246137653078
266390,-0.341814309358597,55.3222682591847
266500,-0.341399997472763,55.3222682591847
266610,-0.341192841529846,55.2246067408153
266720,-0.340157032012939,55.5175772469384
266830,-0.340985685586929,55.6152317408153
266940,-0.341399997472763,55.6640589877538
267040,-0.342228621244431,55.3710955061231
267150,-0.342228621244431,55.1269592714309
267260,-0.341192841529846,55.0292977530616
267370,-0.340157032012939,54.7851544938769
267480,-0.34160715341568,54.6386727530616
267590,-0.342021465301514,54.6875
267700,-0.342228621244431,54.3945365183693
267810,-0.34160715341568,54.2968820244924
267920,-0.341814309358597,54.1015730367387
268030,-0.34160715341568,54.1015730367387
268140,-0.34160715341568,53.9550912959233
268250,-0.341399997472763,53.8574368020464
268360,-0.340985685586929,53.9062640489849
268460,-0.340571343898773,54.0527528142926
268570,-0.341192841529846,54.1015800612311
268680,-0.342021465301514,54.1015800612311
268790,-0.341814309358597,54.1504073081695
268900,-0.340364187955856,54.3945505673542
269010,-0.340985685586929,54.3457162959233
269120,-0.341814309358597,54.3945435428618
269230,-0.341399997472763,54.3945435428618
269340,-0.340985685586929,54.5410252836771
269450,-0.342228621244431,54.4921980367387
269560,-0.341192841529846,54.5898525306155
269670,-0.341399997472763,54.5898525306155
269770,-0.34160715341568,54.3457092714309
269880,-0.34077849984169,54.5410252836771
269990,-0.341399997472763,54.5410252836771
270100,-0.341192841529846,54.4921980367387
270210,-0.34243580698967,54.1504002836771
270320,-0.341399997472763,54.1015730367387
270430,-0.340985685586929,54.2968820244924
270540,-0.341192841529846,54.5898525306155
270650,-0.342642962932587,54.248054777554
270760,-0.342021465301514,54.0039185428618
270870,-0.34077849984169,54.2480618020464
270980,-0.341399997472763,54.6386868020464
271090,-0.341399997472763,54.5410323081695
271190,-0.34160715341568,54.5410323081695
271300,-0.341192841529846,54.4433707898002
271410,-0.342228621244431,54.0039185428618
271520,-0.341192841529846,54.248054777554
271630,-0.341192841529846,54.248054777554
271740,-0.34160715341568,54.1992275306155
271850,-0.34160715341568,54.3457092714309
271960,-0.34243580698967,53.9550772469384
272070,-0.341814309358597,53.8085955061231
272180,-0.341399997472763,53.90625
272290,-0.342850118875504,53.3691362346922
272400,-0.341814309358597,53.1738272469384
272500,-0.341814309358597,53.0761727530616
272610,-0.342642962932587,52.734375
272720,-0.34077849984169,52.8320365183693
272830,-0.34077849984169,53.076179777554
272940,-0.340985685586929,53.3691432591847
273050,-0.339949876070023,53.6621137653078
273160,-0.34160715341568,53.4667977530616
273270,-0.34077849984169,53.5644592714309
273380,-0.34160715341568,53.7597752836771
273490,-0.341192841529846,53.857429777554
273600,-0.342021465301514,53.9062570244924
273710,-0.340985685586929,54.1015660122462
273820,-0.340157032012939,54.3945365183693
273920,-0.341814309358597,54.3457092714309
274030,-0.340571343898773,54.6875070244924
274140,-0.341814309358597,54.638679777554
274250,-0.34077849984169,55.0293118020464
274360,-0.34160715341568,55.0293118020464
274470,-0.341399997472763,55.0293118020464
274580,-0.342021465301514,54.9316573081695
274690,-0.341192841529846,55.1269662959233
274800,-0.34160715341568,55.1269662959233
274910,-0.34160715341568,54.9316502836771
275020,-0.339535564184189,55.5664115183693
275130,-0.342642962932587,55.46875
275230,-0.34160715341568,55.5664044938769
275340,-0.342021465301514,55.5175772469384
275450,-0.340985685586929,55.7617134816307
275560,-0.342642962932587,55.517570222446
275670,-0.34160715341568,55.517570222446
275780,-0.34160715341568,55.5663974693845
275890,-0.34160715341568,55.517570222446
276000,-0.341399997472763,55.7617134816307
276110,-0.34077849984169,55.9570294938769
276220,-0.340985685586929,55.8593679755076
276330,-0.342021465301514,55.5663974693845
276440,-0.34160715341568,55.517570222446
276550,-0.341192841529846,55.6640519632613
276650,-0.342228621244431,55.517570222446
276760,-0.341399997472763,55.5663974693845
276870,-0.341399997472763,55.517570222446
276980,-0.341192841529846,55.4687429755076
277090,-0.34160715341568,55.4199157285691
277200,-0.341399997472763,55.3222612346922
277310,-0.341814309358597,55.0292907285691
277420,-0.34243580698967,54.8339747163229
277530,-0.341192841529846,54.8339747163229
277640,-0.341399997472763,54.9316292101998
277750,-0.34160715341568,55.126945222446
277860,-0.340157032012939,55.6152247163229
277960,-0.34160715341568,55.4687429755076
278070,-0.342228621244431,54.8828089877538
278180,-0.34077849984169,54.9316432591847
278290,-0.341814309358597,55.0292977530616
278400,-0.341192841529846,54.8828089877538
278510,-0.342642962932587,54.4921839877538
278620,-0.341814309358597,54.5410112346922
278730,-0.341399997472763,54.3945224693845
278840,-0.342850118875504,54.1503792101998
278950,-0.340985685586929,54.4433426918305
279060,-0.34077849984169,54.5410042101998
279170,-0.342228621244431,54.2968679755076
279280,-0.34160715341568,54.1992134816307
279380,-0.34077849984169,54.3945294938769
279490,-0.34160715341568,54.1992134816307
279600,-0.341192841529846,54.1992134816307
279710,-0.341814309358597,54.1503862346922
279820,-0.341399997472763,54.1992134816307
279930,-0.341399997472763,54.2968679755076
280040,-0.341814309358597,54.0527247163229
280150,-0.342642962932587,53.8085814571382
280260,-0.34243580698967,53.5644381979536
280370,-0.340985685586929,53.7597471857074
280480,-0.340157032012939,54.0527176918305
280590,-0.341399997472763,54.003890444892
280690,-0.34160715341568,53.6620926918305
280800,-0.342228621244431,53.3691292101998
280910,-0.342228621244431,53.173820222446
281020,-0.341192841529846,53.4179564571382
281130,-0.34077849984169,53.7597542101998
281240,-0.341399997472763,53.7109269632613
281350,-0.34160715341568,53.3691292101998
281460,-0.342228621244431,53.2226474693845
281570,-0.340571343898773,53.564445222446
281680,-0.34160715341568,53.7109269632613
281790,-0.341399997472763,53.7597542101998
281900,-0.341814309358597,53.7597542101998
282010,-0.342228621244431,53.6132724693845
282110,-0.341399997472763,53.6620997163229
282220,-0.341399997472763,53.6620997163229
282330,-0.34077849984169,53.7109339877538
282440,-0.341399997472763,53.5156179755076
282550,-0.341814309358597,53.3691362346922
282660,-0.34077849984169,53.6621067408153
282770,-0.341814309358597,53.6621067408153
282880,-0.341399997472763,53.4179634816307
282990,-0.341192841529846,53.3691362346922
283100,-0.34160715341568,53.4179634816307
283210,-0.341814309358597,53.3203089877538
283320,-0.340157032012939,53.515625
283420,-0.340157032012939,54.0039044938769
283530,-0.342642962932587,53.6621067408153
283640,-0.342228621244431,53.4667977530616
283750,-0.342642962932587,53.2226544938769
283860,-0.342228621244431,52.8808567408153
283970,-0.342021465301514,52.734375
284080,-0.340985685586929,52.7832022469384
284190,-0.340985685586929,53.125
284300,-0.341814309358597,53.0273455061231
284410,-0.341192841529846,52.9785182591847
284520,-0.341814309358597,52.8320365183693
284630,-0.34160715341568,53.076179777554
284740,-0.341814309358597,53.1250070244924
284840,-0.341192841529846,53.0273455061231
284950,-0.341399997472763,53.0273455061231
285060,-0.342228621244431,52.8320365183693
285170,-0.341814309358597,52.7832092714309
285280,-0.341192841529846,52.7832092714309
285390,-0.341814309358597,52.8808637653078
285500,-0.342021465301514,52.685554777554
285610,-0.341814309358597,52.5390730367387
285720,-0.34160715341568,52.5390730367387
285830,-0.340571343898773,52.7832162959233
285940,-0.340571343898773,53.2226755673542
286050,-0.341399997472763,53.3203300612311
286150,-0.34077849984169,53.4668188265389
286260,-0.340985685586929,53.9062710734773
286370,-0.34160715341568,53.9550983204158
286480,-0.34077849984169,54.1992415796004
286590,-0.341814309358597,54.3945575918466
286700,-0.341814309358597,54.150414332662
286810,-0.341192841529846,54.0527528142926
286920,-0.341814309358597,53.8574438265389
287030,-0.340985685586929,53.6133005673542
287140,-0.34243580698967,53.417984555108
287250,-0.342642962932587,52.9785252836771
287360,-0.341814309358597,52.9296980367387
287470,-0.34160715341568,52.8320435428618
287570,-0.34077849984169,53.1250140489849
287680,-0.34160715341568,52.9785323081695
287790,-0.34160715341568,52.636734555108
287900,-0.341814309358597,52.636734555108
288010,-0.342021465301514,52.2949368020464
288120,-0.341399997472763,52.3925912959233
288230,-0.341814309358597,52.1484480367387
288340,-0.340985685586929,52.294929777554
288450,-0.340571343898773,52.4902457898002
288560,-0.34160715341568,52.5879002836771
288670,-0.341192841529846,52.5879002836771
288780,-0.342228621244431,52.4414185428618
288880,-0.342642962932587,52.1972752836771
288990,-0.342228621244431,51.5625140489849
289100,-0.340571343898773,52.0508005673542
289210,-0.340985685586929,52.1972823081695
289320,-0.340571343898773,52.5390800612311
289430,-0.340157032012939,52.7343960734773
289540,-0.342228621244431,52.8320575918466
289650,-0.341399997472763,52.8808848387851
289760,-0.341814309358597,52.8320575918466
289870,-0.340985685586929,52.978539332662
289980,-0.340571343898773,53.1738553449082
290090,-0.341192841529846,53.0761938265389
290200,-0.342228621244431,52.7832303449082
290300,-0.34243580698967,52.6855688265389
290410,-0.34160715341568,52.6855688265389
290520,-0.341399997472763,52.6367415796004
290630,-0.341399997472763,52.8320505673542
290740,-0.34160715341568,52.7832233204158
290850,-0.340985685586929,52.8808778142926
290960,-0.341399997472763,52.8320505673542
291070,-0.341399997472763,52.8808778142926
291180,-0.342850118875504,52.5390800612311
291290,-0.340985685586929,52.7343890489849
291400,-0.341399997472763,52.9785323081695
291510,-0.341399997472763,52.9297050612311
291610,-0.34243580698967,52.6855618020464
291720,-0.34077849984169,52.8808778142926
291830,-0.341814309358597,52.4902528142926
291940,-0.34077849984169,52.6855688265389
292050,-0.342228621244431,52.6855688265389
292160,-0.341814309358597,52.4414255673542
292270,-0.341192841529846,52.5879073081695
292380,-0.341814309358597,52.4414255673542
292490,-0.342021465301514,52.587914332662
292600,-0.34160715341568,52.6367415796004
292710,-0.341399997472763,52.6367415796004
292820,-0.341814309358597,52.8808848387851
292930,-0.340985685586929,52.8808848387851
293030,-0.341814309358597,52.6367415796004
293140,-0.341814309358597,52.7343960734773
293250,-0.340985685586929,52.8808778142926
293360,-0.340571343898773,52.9297050612311
293470,-0.340985685586929,53.0761868020464
293580,-0.341192841529846,53.0761868020464
293690,-0.341192841529846,53.2226685428618
293800,-0.341814309358597,53.1250140489849
293910,-0.34077849984169,53.2715028142926
294020,-0.34160715341568,53.3203300612311
294130,-0.341399997472763,53.6133005673542
294240,-0.340985685586929,53.9550983204158
294340,-0.341814309358597,53.759789332662
294450,-0.340985685586929,53.5644733204158
294560,-0.34160715341568,53.5156460734773
294670,-0.341192841529846,53.6133005673542
294780,-0.34160715341568,53.7597823081695
294890,-0.340571343898773,54.1504073081695
295000,-0.342228621244431,53.9062710734773
295110,-0.340985685586929,53.8574368020464
295220,-0.342642962932587,53.5644662959233
295330,-0.341192841529846,53.6621207898002
295440,-0.34243580698967,53.6132865183693
295550,-0.342021465301514,53.2714887653078
295660,-0.342228621244431,53.1250070244924
295760,-0.340985685586929,53.2226615183693
295870,-0.341814309358597,53.2226615183693
295980,-0.34160715341568,53.3691432591847
296090,-0.342021465301514,53.2226615183693
296200,-0.34077849984169,53.3691502836771
296310,-0.341814309358597,53.1250070244924
296420,-0.340985685586929,53.2226615183693
296530,-0.342021465301514,53.1738342714309
296640,-0.34243580698967,52.7832022469384
296750,-0.34160715341568,52.8320294938769
296860,-0.342228621244431,52.6367205061231
296970,-0.340985685586929,52.6855477530616
297070,-0.340364187955856,52.9785182591847
297180,-0.341192841529846,53.125
297290,-0.341192841529846,52.8808567408153
297400,-0.34160715341568,52.5390589877538
297510,-0.341192841529846,52.8808567408153
297620,-0.342850118875504,52.7343679755076
297730,-0.34077849984169,53.1738272469384
297840,-0.34160715341568,53.3203089877538
297950,-0.341192841529846,53.5156179755076
298060,-0.341192841529846,53.4667907285691
298170,-0.341399997472763,53.3691362346922
298280,-0.342021465301514,53.3203089877538
298390,-0.342021465301514,53.125
298490,-0.34243580698967,52.9785112346922
298600,-0.341192841529846,53.0761657285691
298710,-0.340571343898773,53.3691362346922
298820,-0.340571343898773,53.515625
298930,-0.342228621244431,53.3203160122462
299040,-0.340985685586929,53.6132794938769
299150,-0.342021465301514,53.5644522469384
299260,-0.341399997472763,53.515625
299370,-0.342021465301514,53.4667977530616
299480,-0.342021465301514,53.4667977530616
299590,-0.34160715341568,53.515625
299700,-0.34160715341568,53.515625
299800,-0.34243580698967,53.0761657285691
299910,-0.340364187955856,53.1249929755076
300020,-0.342642962932587,52.8320224693845
300130,-0.34160715341568,52.6367064571382
300240,-0.342228621244431,52.3437429755076
300350,-0.342021465301514,52.2460884816307
300460,-0.341192841529846,52.1484269632613
300570,-0.34077849984169,52.392570222446
300680,-0.34160715341568,52.4413974693845
300790,-0.34160715341568,52.3437429755076
300900,-0.341814309358597,52.3437429755076
301010,-0.34160715341568,52.1972612346922
301120,-0.342021465301514,52.2949227530616
301220,-0.342021465301514,52.4414115183693
301330,-0.34243580698967,52.2949227530616
301440,-0.340985685586929,52.4414044938769
301550,-0.342021465301514,52.1484339877538
301660,-0.342021465301514,52.0507794938769
301770,-0.340571343898773,52.2949227530616
301880,-0.340985685586929,52.4902317408153
301990,-0.340364187955856,52.8808567408153
302100,-0.341814309358597,52.7832022469384
302210,-0.341399997472763,52.8808567408153
302320,-0.339949876070023,53.125
302430,-0.34077849984169,53.0761727530616
302530,-0.341814309358597,53.0273455061231
302640,-0.341399997472763,52.9785182591847
302750,-0.341814309358597,53.0761727530616
302860,-0.342021465301514,53.2226615183693
302970,-0.34077849984169,53.5644592714309
303080,-0.341192841529846,53.4179705061231
303190,-0.34160715341568,53.2714887653078
303300,-0.340985685586929,53.1738272469384
303410,-0.341814309358597,52.7832022469384
303520,-0.341399997472763,52.9785112346922
303630,-0.341192841529846,53.0273384816307
303740,-0.341814309358597,53.0273384816307
303850,-0.34160715341568,52.8808567408153
303950,-0.34077849984169,52.8320294938769
304060,-0.341399997472763,52.7832022469384
304170,-0.341814309358597,52.8808567408153
304280,-0.34160715341568,53.0761727530616
304390,-0.340985685586929,53.2226544938769
304500,-0.341814309358597,53.125
304610,-0.34160715341568,53.0761727530616
304720,-0.342021465301514,52.9785182591847
304830,-0.340571343898773,53.076179777554
304940,-0.341192841529846,53.1250070244924
305050,-0.342021465301514,52.9785252836771
305160,-0.34160715341568,53.2714957898002
305260,-0.341399997472763,53.1738412959233
305370,-0.341399997472763,53.1738412959233
305480,-0.341399997472763,53.1738412959233
305590,-0.34160715341568,53.3691573081695
305700,-0.341399997472763,53.2226685428618
305810,-0.340985685586929,53.4179775306155
305920,-0.342228621244431,53.076179777554
306030,-0.342642962932587,52.9785182591847
306140,-0.342021465301514,52.9296910122462
306250,-0.342021465301514,52.7343820244924
306360,-0.341814309358597,52.7343820244924
306470,-0.340985685586929,52.9785182591847
306580,-0.340985685586929,53.125
306680,-0.341192841529846,53.1738272469384
306790,-0.340157032012939,53.5644522469384
306900,-0.341814309358597,53.3691432591847
307010,-0.34160715341568,53.4179705061231
307120,-0.34160715341568,53.4667977530616
307230,-0.341814309358597,53.2714887653078
307340,-0.34243580698967,52.8320294938769
307450,-0.340985685586929,52.8320294938769
307560,-0.34305727481842,52.3925772469384
307670,-0.34243580698967,52.0996067408153
307780,-0.341814309358597,52.0996067408153
307890,-0.342021465301514,51.8066362346922
307990,-0.34160715341568,51.8066362346922
308100,-0.340571343898773,52.0019522469384
