time,raw,transformed
9630,-0.330834835767746,0
9740,-0.331456303596497,0
9850,-0.331663459539413,0
9960,-0.33187061548233,0
10070,-0.33269926905632,0
10180,-0.331663459539413,0
10290,-0.332077771425247,0
10400,-0.330834835767746,0
10510,-0.33269926905632,0
10620,-0.333113580942154,0
10730,-0.333320736885071,0
10830,-0.333527892827988,0
10940,-0.333113580942154,0
11050,-0.333735078573227,0
11160,-0.333735078573227,0
11270,-0.334356546401978,0
11380,-0.334770858287811,0
11490,-0.334770858287811,0
11600,-0.333942234516144,0
11710,-0.334770858287811,0
11820,-0.334978014230728,0
11930,-0.333942234516144,0
12040,-0.334563702344894,0
12140,-0.336220979690552,0
12250,-0.334149390459061,0
12360,-0.335185199975967,0
12470,-0.334978014230728,0
12580,-0.335185199975967,0
12690,-0.335806667804718,0
12800,-0.335599511861801,0
12910,-0.337049633264542,0
13020,-0.334356546401978,0
13130,-0.334563702344894,0
13240,-0.335599511861801,0
13350,-0.334770858287811,0
13460,-0.335806667804718,0
13560,-0.336220979690552,0
13670,-0.336635321378708,0
13780,-0.336428135633469,0
13890,-0.336842477321625,0
14000,-0.337256789207459,0
14110,-0.336428135633469,0
14220,-0.336428135633469,0
14330,-0.337049633264542,0
14440,-0.336013823747635,0
14550,-0.336635321378708,0
14660,-0.337463945150375,0
14770,-0.337256789207459,0
14870,-0.335599511861801,0
14980,-0.337256789207459,0
15090,-0.336220979690552,0
15200,-0.337463945150375,0
15310,-0.336635321378708,0
15420,-0.337049633264542,0
15530,-0.337256789207459,0
15640,-0.336842477321625,0
15750,-0.33932837843895,0
15860,-0.337463945150375,0
15970,-0.337256789207459,0
16080,-0.337256789207459,0
16190,-0.337878257036209,0
16290,-0.338914066553116,0
16400,-0.338499754667282,0
16510,-0.336842477321625,0
16620,-0.337049633264542,0
16730,-0.337671101093292,0
16840,-0.338085442781448,0
16950,-0.338292598724365,0
17060,-0.338085442781448,0
17170,-0.337878257036209,0
17280,-0.337463945150375,0
17390,-0.336842477321625,0
17500,-0.336842477321625,0
17600,-0.338499754667282,0
17710,-0.33932837843895,0
17820,-0.338292598724365,0
17930,-0.337671101093292,0
18040,-0.337878257036209,0
18150,-0.337671101093292,0
18260,-0.337878257036209,0
18370,-0.336635321378708,0
18480,-0.338499754667282,0
18590,-0.338706910610199,0
18700,-0.337671101093292,0
18810,-0.338085442781448,0
18920,-0.338085442781448,0
19020,-0.338499754667282,0
19130,-0.338914066553116,0
19240,-0.338706910610199,0
19350,-0.339949876070023,0
19460,-0.337878257036209,0
19570,-0.339121222496033,0
19680,-0.338706910610199,0
19790,-0.338499754667282,0
19900,-0.337256789207459,0
20010,-0.337878257036209,0
20120,-0.338914066553116,0
20230,-0.338292598724365,0
20330,-0.339121222496033,0
20440,-0.338292598724365,0
20550,-0.337671101093292,0
20660,-0.337878257036209,0
20770,-0.338085442781448,0
20880,-0.338706910610199,0
20990,-0.338914066553116,0
21100,-0.339742720127106,0
21210,-0.338914066553116,0
21320,-0.338499754667282,0
21430,-0.339742720127106,0
21540,-0.338914066553116,0
21650,-0.33932837843895,0
21750,-0.338706910610199,0
21860,-0.338706910610199,0
21970,-0.338499754667282,0
22080,-0.338292598724365,0
22190,-0.338292598724365,0
22300,-0.338499754667282,0
22410,-0.337878257036209,0
22520,-0.337878257036209,0
22630,-0.338914066553116,0
22740,-0.337878257036209,0
22850,-0.338499754667282,0
22960,-0.33932837843895,0
23060,-0.33932837843895,0
23170,-0.338085442781448,0
23280,-0.338914066553116,0
23390,-0.33932837843895,0
23500,-0.339535564184189,0
23610,-0.339121222496033,0
23720,-0.33932837843895,0
23830,-0.339535564184189,0
23940,-0.339121222496033,0
24050,-0.339535564184189,0
24160,-0.33932837843895,0
24270,-0.33932837843895,0
24380,-0.338706910610199,0
24480,-0.339742720127106,0
24590,-0.339121222496033,0
24700,-0.339121222496033,0
24810,-0.338706910610199,0
24920,-0.338292598724365,0
25030,-0.338499754667282,0
25140,-0.338706910610199,0
25250,-0.340157032012939,0
25360,-0.339742720127106,0
25470,-0.339742720127106,0
25580,-0.337671101093292,0
25690,-0.338499754667282,0
25790,-0.338706910610199,0
25900,-0.338914066553116,0
26010,-0.339535564184189,0
26120,-0.338499754667282,0
26230,-0.338706910610199,0
26340,-0.339121222496033,0
26450,-0.338914066553116,0
26560,-0.339121222496033,0
26670,-0.337878257036209,0
26780,-0.339742720127106,0
26890,-0.338914066553116,0
27000,-0.33932837843895,0
27110,-0.339949876070023,0
27210,-0.338292598724365,0
27320,-0.33932837843895,0
27430,-0.339742720127106,0
27540,-0.338914066553116,0
27650,-0.338499754667282,0
27760,-0.33932837843895,0
27870,-0.340571343898773,0
27980,-0.339949876070023,0
28090,-0.339742720127106,0
28200,-0.339742720127106,0
28310,-0.340364187955856,0
28420,-0.34077849984169,0
28520,-0.340364187955856,0
28630,-0.338914066553116,0
28740,-0.339535564184189,0
28850,-0.339949876070023,0
28960,-0.338706910610199,0
29070,-0.339121222496033,0
29180,-0.339742720127106,0
29290,-0.33932837843895,0
29400,-0.339742720127106,0
29510,-0.338706910610199,0
29620,-0.340571343898773,0
29730,-0.33932837843895,0
29840,-0.340364187955856,0
29940,-0.339121222496033,0
30050,-0.340157032012939,0
30160,-0.339742720127106,0
30270,-0.340157032012939,0
30380,-0.339535564184189,0
30490,-0.338914066553116,0
30600,-0.339535564184189,0
30710,-0.339742720127106,0
30820,-0.340364187955856,0
30930,-0.340571343898773,0
31040,-0.340157032012939,0
31150,-0.338914066553116,0
31250,-0.34077849984169,0
31360,-0.340571343898773,0
31470,-0.340571343898773,0
31580,-0.339742720127106,0
31690,-0.339535564184189,0
31800,-0.340157032012939,0
31910,-0.340364187955856,0
32020,-0.340985685586929,0
32130,-0.339742720127106,0
32240,-0.339949876070023,0
32350,-0.339121222496033,0
32460,-0.340157032012939,0
32570,-0.339121222496033,0
32670,-0.34077849984169,0
32780,-0.339949876070023,0
32890,-0.338914066553116,0
33000,-0.339121222496033,0
33110,-0.339949876070023,0
33220,-0.339535564184189,0
33330,-0.339121222496033,0
33440,-0.340364187955856,0
33550,-0.33932837843895,0
33660,-0.340571343898773,0
33770,-0.340157032012939,0
33880,-0.339535564184189,0
33980,-0.339949876070023,0
34090,-0.338914066553116,0
34200,-0.339535564184189,0
34310,-0.340571343898773,0
34420,-0.339742720127106,0
34530,-0.341192841529846,0
34640,-0.340364187955856,0
34750,-0.338914066553116,0
34860,-0.339535564184189,0
34970,-0.340157032012939,0
35080,-0.339121222496033,0
35190,-0.340571343898773,0
35300,-0.34077849984169,0
35400,-0.339535564184189,0
35510,-0.339535564184189,0
35620,-0.339742720127106,0
35730,-0.340985685586929,0
35840,-0.339535564184189,0
35950,-0.33932837843895,0
36060,-0.340364187955856,0
36170,-0.33932837843895,0
36280,-0.339742720127106,0
36390,-0.34160715341568,0
36500,-0.339949876070023,0
36610,-0.340364187955856,0
36710,-0.340157032012939,0
36820,-0.340571343898773,0
36930,-0.339949876070023,0
37040,-0.340364187955856,0
37150,-0.339121222496033,0
37260,-0.340157032012939,0
37370,-0.341399997472763,0
37480,-0.340571343898773,0
37590,-0.339949876070023,0
37700,-0.339535564184189,0
37810,-0.340364187955856,0
37920,-0.33932837843895,0
38030,-0.340571343898773,0
38130,-0.340364187955856,0
38240,-0.34077849984169,0
38350,-0.340571343898773,0
38460,-0.340364187955856,0
38570,-0.340364187955856,0
38680,-0.339949876070023,0
38790,-0.340364187955856,0
38900,-0.340571343898773,0
39010,-0.339742720127106,0
39120,-0.339949876070023,0
39230,-0.340571343898773,0
39340,-0.340571343898773,0
39440,-0.340571343898773,0
39550,-0.340571343898773,0
39660,-0.34160715341568,0
39770,-0.340571343898773,0
39880,-0.340157032012939,0
39990,-0.340571343898773,0
40100,-0.339742720127106,0
40210,-0.340571343898773,0
40320,-0.340985685586929,0
40430,-0.340985685586929,0
40540,-0.336842477321625,0
40650,-0.339949876070023,0
40760,-0.340571343898773,0
40860,-0.34077849984169,0
40970,-0.340985685586929,0
41080,-0.33932837843895,0
41190,-0.341814309358597,0
41300,-0.339121222496033,0
41410,-0.339742720127106,0
41520,-0.340157032012939,0
41630,-0.340364187955856,0
41740,-0.340157032012939,0
41850,-0.340364187955856,0
41960,-0.340157032012939,0
42070,-0.340571343898773,0
42170,-0.339535564184189,0
42280,-0.339535564184189,0
42390,-0.339742720127106,0
42500,-0.339742720127106,0
42610,-0.341192841529846,0
42720,-0.339949876070023,0
42830,-0.340985685586929,0
42940,-0.338706910610199,0
43050,-0.34077849984169,0
43160,-0.340571343898773,0
43270,-0.340571343898773,0
43380,-0.340157032012939,0
43490,-0.340364187955856,0
43590,-0.340157032012939,0
43700,-0.339742720127106,0
43810,-0.341192841529846,0
43920,-0.340157032012939,0
44030,-0.341399997472763,0
44140,-0.340985685586929,0
44250,-0.339121222496033,0
44360,-0.340157032012939,0
44470,-0.339742720127106,0
44580,-0.34077849984169,0
44690,-0.340157032012939,0
44800,-0.340157032012939,0
44900,-0.340364187955856,0
45010,-0.339121222496033,0
45120,-0.340364187955856,0
45230,-0.341192841529846,0
45340,-0.339949876070023,0
45450,-0.340571343898773,0
45560,-0.340571343898773,0
45670,-0.339949876070023,0
45780,-0.340157032012939,0
45890,-0.34077849984169,0
46000,-0.339535564184189,0
46110,-0.340364187955856,0
46220,-0.339949876070023,0
46320,-0.34077849984169,0
46430,-0.34160715341568,0
46540,-0.340571343898773,0
46650,-0.340571343898773,0
46760,-0.340157032012939,0
46870,-0.341192841529846,0
46980,-0.339742720127106,0
47090,-0.34077849984169,0
47200,-0.340985685586929,0
47310,-0.340985685586929,0
47420,-0.341192841529846,0
47530,-0.34077849984169,0
47630,-0.339535564184189,0
47740,-0.340364187955856,0
47850,-0.340364187955856,0
47960,-0.341192841529846,0
48070,-0.339949876070023,0
48180,-0.34077849984169,0
48290,-0.339535564184189,0
48400,-0.340157032012939,0
48510,-0.340364187955856,0
48620,-0.339742720127106,0
48730,-0.34077849984169,0
48840,-0.340364187955856,0
48950,-0.340364187955856,0
49050,-0.339535564184189,0
49160,-0.341399997472763,0
49270,-0.341192841529846,0
49380,-0.339535564184189,0
49490,-0.341192841529846,0
49600,-0.339535564184189,0
49710,-0.341814309358597,0
49820,-0.340157032012939,0
49930,-0.340571343898773,0
50040,-0.34077849984169,0
50150,-0.33932837843895,0
50260,-0.340985685586929,0
50360,-0.34077849984169,0
50470,-0.340364187955856,0
50580,-0.340364187955856,0
50690,-0.340157032012939,0
50800,-0.339949876070023,0
50910,-0.340157032012939,0
51020,-0.341192841529846,0
51130,-0.34077849984169,0
51240,-0.339742720127106,0
51350,-0.340571343898773,0
51460,-0.34077849984169,0
51570,-0.342021465301514,0
51680,-0.339949876070023,0
51780,-0.341192841529846,0
51890,-0.340364187955856,0
52000,-0.34160715341568,0
52110,-0.339742720127106,0
52220,-0.341399997472763,0
52330,-0.339535564184189,0
52440,-0.341192841529846,0
52550,-0.339535564184189,0
52660,-0.341399997472763,0
52770,-0.339949876070023,0
52880,-0.341399997472763,0
52990,-0.34077849984169,0
53090,-0.340985685586929,0
53200,-0.34077849984169,0
53310,-0.34077849984169,0
53420,-0.339949876070023,0
53530,-0.340571343898773,0
53640,-0.340157032012939,0
53750,-0.340364187955856,0
53860,-0.339949876070023,0
53970,-0.341399997472763,0
54080,-0.34077849984169,0
54190,-0.340985685586929,0
54300,-0.340157032012939,0
54410,-0.34077849984169,0
54510,-0.341399997472763,0
54620,-0.340157032012939,0
54730,-0.341399997472763,0
54840,-0.341192841529846,0
54950,-0.34077849984169,0
55060,-0.34077849984169,0
55170,-0.340571343898773,0
55280,-0.340985685586929,0
55390,-0.341192841529846,0
55500,-0.34077849984169,0
55610,-0.34077849984169,0
55720,-0.339949876070023,0
55820,-0.341192841529846,0
55930,-0.340571343898773,0
56040,-0.340364187955856,0
56150,-0.339535564184189,0
56260,-0.341192841529846,0
56370,-0.34077849984169,0
56480,-0.340571343898773,0
56590,-0.33932837843895,0
56700,-0.340571343898773,0
56810,-0.34077849984169,0
56920,-0.340571343898773,0
57030,-0.34077849984169,0
57140,-0.34160715341568,0
57240,-0.34077849984169,0
57350,-0.340985685586929,0
57460,-0.341192841529846,0
57570,-0.341399997472763,0
57680,-0.34077849984169,0
57790,-0.34077849984169,0
57900,-0.339949876070023,0
58010,-0.340364187955856,0
58120,-0.34077849984169,0
58230,-0.34243580698967,0
58340,-0.342228621244431,0
58450,-0.340364187955856,0
58550,-0.340364187955856,0
58660,-0.340364187955856,0
58770,-0.340985685586929,0
58880,-0.341399997472763,0
58990,-0.340985685586929,0
59100,-0.338914066553116,0
59210,-0.341192841529846,0
59320,-0.339742720127106,0
59430,-0.340985685586929,0
59540,-0.340571343898773,0
59650,-0.339742720127106,0
59760,-0.340364187955856,0
59870,-0.341192841529846,0
59970,-0.339949876070023,0
60080,-0.341399997472763,0
60190,-0.341192841529846,0
60300,-0.339742720127106,0
60410,-0.34077849984169,0
60520,-0.341192841529846,0
60630,-0.341192841529846,0
60740,-0.34077849984169,0
60850,-0.339742720127106,0
60960,-0.34077849984169,0
61070,-0.34077849984169,0
61180,-0.339535564184189,0
61280,-0.340985685586929,0
61390,-0.339949876070023,0
61500,-0.341192841529846,0
61610,-0.340364187955856,0
61720,-0.34160715341568,0
61830,-0.339949876070023,0
61940,-0.340985685586929,0
62050,-0.340985685586929,0
62160,-0.34077849984169,0
62270,-0.341399997472763,0
62380,-0.34160715341568,0
62490,-0.340364187955856,0
62600,-0.340571343898773,0
62700,-0.34077849984169,0
62810,-0.340364187955856,0
62920,-0.341192841529846,0
63030,-0.339742720127106,0
63140,-0.341399997472763,0
63250,-0.339949876070023,0
63360,-0.341192841529846,0
63470,-0.340364187955856,0
63580,-0.341192841529846,0
63690,-0.340985685586929,0
63800,-0.340571343898773,0
63910,-0.341399997472763,0
64010,-0.340364187955856,0
64120,-0.34077849984169,0
64230,-0.339949876070023,0
64340,-0.340985685586929,0
64450,-0.341399997472763,0
64560,-0.340985685586929,0
64670,-0.340364187955856,0
64780,-0.340157032012939,0
64890,-0.341192841529846,0
65000,-0.340571343898773,0
65110,-0.340571343898773,0
65220,-0.340985685586929,0
65330,-0.340985685586929,0
65430,-0.339949876070023,0
65540,-0.34160715341568,0
65650,-0.342021465301514,0
65760,-0.339535564184189,0
65870,-0.340571343898773,0
65980,-0.341814309358597,0
66090,-0.341399997472763,0
66200,-0.339742720127106,0
66310,-0.34077849984169,0
66420,-0.339742720127106,0
66530,-0.341814309358597,0
66640,-0.340985685586929,0
66740,-0.339742720127106,0
66850,-0.341192841529846,0
66960,-0.340985685586929,0
67070,-0.341399997472763,0
67180,-0.341399997472763,0
67290,-0.340364187955856,0
67400,-0.340985685586929,0
67510,-0.341399997472763,0
67620,-0.340571343898773,0
67730,-0.34077849984169,0
67840,-0.341192841529846,0
67950,-0.340364187955856,0
68060,-0.340157032012939,0
68160,-0.341399997472763,0
68270,-0.341192841529846,0
68380,-0.341814309358597,0
68490,-0.34077849984169,0
68600,-0.340571343898773,0
68710,-0.340571343898773,0
68820,-0.340364187955856,0
68930,-0.340571343898773,0
69040,-0.339949876070023,0
69150,-0.340364187955856,0
69260,-0.340157032012939,0
69370,-0.341399997472763,0
69470,-0.340364187955856,0
69580,-0.340157032012939,0
69690,-0.340157032012939,0
69800,-0.341192841529846,0
69910,-0.340985685586929,0
70020,-0.340571343898773,0
70130,-0.34077849984169,0
70240,-0.34160715341568,0
70350,-0.341399997472763,0
70460,-0.340985685586929,0
70570,-0.34160715341568,0
70680,-0.342228621244431,0
70790,-0.340364187955856,0
70890,-0.341399997472763,0
71000,-0.34077849984169,0
71110,-0.341399997472763,0
71220,-0.34077849984169,0
71330,-0.340985685586929,0
71440,-0.340157032012939,0
71550,-0.340571343898773,0
71660,-0.339949876070023,0
71770,-0.340985685586929,0
71880,-0.340985685586929,0
71990,-0.340985685586929,0
72100,-0.34160715341568,0
72200,-0.341814309358597,0
72310,-0.339742720127106,0
72420,-0.340571343898773,0
72530,-0.340985685586929,0
72640,-0.340985685586929,0
72750,-0.34160715341568,0
72860,-0.340364187955856,0
72970,-0.341192841529846,0
73080,-0.341399997472763,0
73190,-0.340985685586929,0
73300,-0.340571343898773,0
73410,-0.340157032012939,0
73520,-0.339742720127106,0
73620,-0.341399997472763,0
73730,-0.341192841529846,0
73840,-0.342021465301514,0
73950,-0.34077849984169,0
74060,-0.340364187955856,0
74170,-0.341192841529846,0
74280,-0.341192841529846,0
74390,-0.341192841529846,0
74500,-0.341192841529846,0
74610,-0.340571343898773,0
74720,-0.341192841529846,0
74830,-0.34077849984169,0
74940,-0.341399997472763,0
75040,-0.341814309358597,0
75150,-0.341399997472763,0
75260,-0.34077849984169,0
75370,-0.339742720127106,0
75480,-0.34077849984169,0
75590,-0.339949876070023,0
75700,-0.340571343898773,0
75810,-0.339949876070023,0
75920,-0.340985685586929,0
76030,-0.34160715341568,0
76140,-0.340985685586929,0
76250,-0.340157032012939,0
76350,-0.341399997472763,0
76460,-0.340985685586929,0
76570,-0.34160715341568,0
76680,-0.34077849984169,0
76790,-0.340571343898773,0
76900,-0.342021465301514,0
77010,-0.341399997472763,0
77120,-0.34160715341568,0
77230,-0.342850118875504,0
77340,-0.341192841529846,0
77450,-0.340364187955856,0
77560,-0.340157032012939,0
77670,-0.340157032012939,0
77770,-0.34077849984169,0
77880,-0.340571343898773,0
77990,-0.341192841529846,0
78100,-0.340157032012939,0
78210,-0.34160715341568,0
78320,-0.34077849984169,0
78430,-0.342021465301514,0
78540,-0.342021465301514,0
78650,-0.341814309358597,0
78760,-0.341399997472763,0
78870,-0.34160715341568,0
78980,-0.34077849984169,0
79080,-0.340571343898773,0
79190,-0.341192841529846,0
79300,-0.341192841529846,0
79410,-0.34077849984169,0
79520,-0.340571343898773,0
79630,-0.341814309358597,0
79740,-0.341192841529846,0
79850,-0.341192841529846,0
79960,-0.34160715341568,0
80070,-0.341399997472763,0
80180,-0.341192841529846,0
80290,-0.340985685586929,0
80400,-0.342228621244431,0
80500,-0.340985685586929,0
80610,-0.340571343898773,0
80720,-0.341814309358597,0
80830,-0.341192841529846,0
80940,-0.341399997472763,0
81050,-0.341814309358597,0
81160,-0.342228621244431,0
81270,-0.340364187955856,0
81380,-0.341814309358597,0
81490,-0.341399997472763,0
81600,-0.340364187955856,0
81710,-0.340571343898773,0
81810,-0.34160715341568,0
81920,-0.340985685586929,0
82030,-0.340571343898773,0
82140,-0.340157032012939,0
82250,-0.34077849984169,0
82360,-0.34077849984169,0
82470,-0.341814309358597,0
82580,-0.341399997472763,0
82690,-0.341814309358597,0
82800,-0.342228621244431,0
82910,-0.342228621244431,0
83020,-0.341814309358597,0
83130,-0.340985685586929,0
83230,-0.341399997472763,0
83340,-0.340571343898773,0
83450,-0.339742720127106,0
83560,-0.34077849984169,0
83670,-0.34077849984169,0
83780,-0.341814309358597,0
83890,-0.34077849984169,0
84000,-0.339742720127106,0
84110,-0.341192841529846,0
84220,-0.34160715341568,0
84330,-0.341814309358597,0
84440,-0.340571343898773,0
84540,-0.340364187955856,0
84650,-0.341399997472763,0
84760,-0.34160715341568,0
84870,-0.340985685586929,0
84980,-0.340157032012939,0
85090,-0.340985685586929,0
85200,-0.34077849984169,0
85310,-0.339949876070023,0
85420,-0.341399997472763,0
85530,-0.341814309358597,0
85640,-0.342228621244431,0
85750,-0.341192841529846,0
85860,-0.340985685586929,0
85960,-0.341399997472763,0
86070,-0.340985685586929,0
86180,-0.34160715341568,0
86290,-0.341814309358597,0
86400,-0.340985685586929,0
86510,-0.340364187955856,0
86620,-0.341399997472763,0
86730,-0.340985685586929,0
86840,-0.341814309358597,0
86950,-0.342228621244431,0
87060,-0.34160715341568,0
87170,-0.340985685586929,0
87270,-0.34160715341568,0
87380,-0.341399997472763,0
87490,-0.340985685586929,0
87600,-0.339535564184189,0
87710,-0.341192841529846,0
87820,-0.341399997472763,0
87930,-0.340985685586929,0
88040,-0.340364187955856,0
88150,-0.34160715341568,0
88260,-0.34160715341568,0
88370,-0.342021465301514,0
88480,-0.340364187955856,0
88590,-0.341399997472763,0
88690,-0.341192841529846,0
88800,-0.341192841529846,0
88910,-0.340571343898773,0
89020,-0.340571343898773,0
89130,-0.342021465301514,0
89240,-0.340364187955856,0
89350,-0.340157032012939,0
89460,-0.342228621244431,0
89570,-0.340985685586929,0
89680,-0.341399997472763,0
89790,-0.341814309358597,0
89900,-0.341399997472763,0
90000,-0.34077849984169,0
90110,-0.34077849984169,0
90220,-0.341399997472763,0
90330,-0.34243580698967,0
90440,-0.34160715341568,0
90550,-0.340985685586929,0
90660,-0.341814309358597,0
90770,-0.34077849984169,0
90880,-0.341192841529846,0
90990,-0.341399997472763,0
91100,-0.340985685586929,0
91210,-0.339949876070023,0
91320,-0.342021465301514,0
91420,-0.34160715341568,0
91530,-0.340985685586929,0
91640,-0.340571343898773,0
91750,-0.341399997472763,0
91860,-0.342021465301514,0
91970,-0.340985685586929,0
92080,-0.341192841529846,0
92190,-0.342228621244431,0
92300,-0.34077849984169,0
92410,-0.34160715341568,0
92520,-0.340985685586929,0
92630,-0.340364187955856,0
92730,-0.341399997472763,0
92840,-0.34077849984169,0
92950,-0.340985685586929,0
93060,-0.342228621244431,0
93170,-0.340985685586929,0
93280,-0.34077849984169,0
93390,-0.342021465301514,0
93500,-0.34077849984169,0
93610,-0.34160715341568,0
93720,-0.341399997472763,0
93830,-0.340157032012939,0
93940,-0.340985685586929,0
94050,-0.34160715341568,0
94150,-0.342228621244431,0
94260,-0.340571343898773,0
94370,-0.340571343898773,0
94480,-0.34077849984169,0
94590,-0.341399997472763,0
94700,-0.341399997472763,0
94810,-0.341192841529846,0
94920,-0.342021465301514,0
95030,-0.34160715341568,0
95140,-0.34160715341568,0
95250,-0.342228621244431,0
95360,-0.34077849984169,0
95460,-0.341399997472763,0
95570,-0.340985685586929,0
95680,-0.339742720127106,0
95790,-0.34160715341568,0
95900,-0.34160715341568,0
96010,-0.342021465301514,0
96120,-0.34160715341568,0
96230,-0.341192841529846,0
96340,-0.342642962932587,0
96450,-0.340985685586929,0
96560,-0.342228621244431,0
96670,-0.340571343898773,0
96780,-0.34160715341568,0
96880,-0.340571343898773,0
96990,-0.340985685586929,0
97100,-0.34243580698967,0
97210,-0.341192841529846,0
97320,-0.341399997472763,0
97430,-0.341814309358597,0
97540,-0.341192841529846,0
97650,-0.340985685586929,0
97760,-0.341192841529846,0
97870,-0.342228621244431,0
97980,-0.340985685586929,0
98090,-0.341192841529846,0
98190,-0.341814309358597,0
98300,-0.340364187955856,0
98410,-0.339742720127106,0
98520,-0.341192841529846,0
98630,-0.34160715341568,0
98740,-0.341192841529846,0
98850,-0.342021465301514,0
98960,-0.340157032012939,0
99070,-0.342021465301514,0
99180,-0.340571343898773,0
99290,-0.341399997472763,0
99400,-0.34077849984169,0
99510,-0.340985685586929,0
99610,-0.341192841529846,0
99720,-0.34160715341568,0
99830,-0.339949876070023,0
99940,-0.341814309358597,0
100050,-0.341192841529846,0
100160,-0.341399997472763,0
100270,-0.340157032012939,0
100380,-0.341399997472763,0
100490,-0.341192841529846,0
100600,-0.341399997472763,0
100710,-0.341192841529846,0
100820,-0.34077849984169,0
100920,-0.34243580698967,0
101030,-0.340364187955856,0
101140,-0.340571343898773,0
101250,-0.340571343898773,0
101360,-0.34077849984169,0
101470,-0.34160715341568,0
101580,-0.34077849984169,0
101690,-0.340157032012939,0
101800,-0.341192841529846,0
101910,-0.341192841529846,0
102020,-0.34160715341568,0
102130,-0.341399997472763,0
102240,-0.340571343898773,0
102340,-0.340571343898773,0
102450,-0.341814309358597,0
102560,-0.34160715341568,0
102670,-0.341192841529846,0
102780,-0.340571343898773,0
102890,-0.342021465301514,0
103000,-0.341192841529846,0
103110,-0.34160715341568,0
103220,-0.341192841529846,0
103330,-0.34077849984169,0
103440,-0.341192841529846,0
103550,-0.341399997472763,0
103650,-0.340364187955856,0
103760,-0.341399997472763,0
103870,-0.341399997472763,0
103980,-0.34160715341568,0
104090,-0.34160715341568,0
104200,-0.341399997472763,0
104310,-0.339949876070023,0
104420,-0.339949876070023,0
104530,-0.342021465301514,0
104640,-0.341399997472763,0
104750,-0.341399997472763,0
104860,-0.34077849984169,0
104970,-0.341814309358597,0
105070,-0.340364187955856,0
105180,-0.341192841529846,0
105290,-0.341399997472763,0
105400,-0.342642962932587,0
105510,-0.341399997472763,0
105620,-0.341399997472763,0
105730,-0.341399997472763,0
105840,-0.342021465301514,0
105950,-0.342021465301514,0
106060,-0.342228621244431,0
106170,-0.340985685586929,0
106280,-0.340364187955856,0
106380,-0.341814309358597,0
106490,-0.340985685586929,0
106600,-0.341399997472763,0
106710,-0.340985685586929,0
106820,-0.340985685586929,0
106930,-0.34160715341568,0
107040,-0.341399997472763,0
107150,-0.341192841529846,0
107260,-0.34077849984169,0
107370,-0.339949876070023,0
107480,-0.341399997472763,0
107590,-0.342228621244431,0
107700,-0.34160715341568,0
107800,-0.342021465301514,0
107910,-0.340985685586929,0
108020,-0.340985685586929,0
108130,-0.34077849984169,0
108240,-0.34077849984169,0
108350,-0.341192841529846,0
108460,-0.341399997472763,0
108570,-0.340985685586929,0
108680,-0.342021465301514,0
108790,-0.341399997472763,0
108900,-0.341814309358597,0
109010,-0.340985685586929,0
109110,-0.341399997472763,0
109220,-0.34077849984169,0
109330,-0.340571343898773,0
109440,-0.341399997472763,0
109550,-0.340364187955856,0
109660,-0.340571343898773,0
109770,-0.34077849984169,0
109880,-0.342021465301514,0
109990,-0.34077849984169,0
110100,-0.340985685586929,0
110210,-0.340985685586929,0
110320,-0.34160715341568,0
110430,-0.34160715341568,0
110530,-0.339742720127106,0
110640,-0.34243580698967,0
110750,-0.341192841529846,0
110860,-0.340571343898773,0
110970,-0.341192841529846,0
111080,-0.34243580698967,0
111190,-0.341399997472763,0
111300,-0.341192841529846,0
111410,-0.342021465301514,0
111520,-0.341814309358597,0
111630,-0.342021465301514,0
111740,-0.341192841529846,0
111840,-0.341814309358597,0
111950,-0.339535564184189,0
112060,-0.341192841529846,0
112170,-0.341192841529846,0
112280,-0.34160715341568,0
112390,-0.340571343898773,0
112500,-0.341192841529846,0
112610,-0.341814309358597,0
112720,-0.34077849984169,0
112830,-0.340571343898773,0
112940,-0.341399997472763,0
113050,-0.341192841529846,0
113160,-0.342850118875504,0
113260,-0.341814309358597,0
113370,-0.341399997472763,0
113480,-0.34160715341568,0
113590,-0.342228621244431,0
113700,-0.341399997472763,0
113810,-0.341192841529846,0
113920,-0.340364187955856,0
114030,-0.341192841529846,0
114140,-0.340985685586929,0
114250,-0.34160715341568,0
114360,-0.340985685586929,0
114470,-0.341399997472763,0
114570,-0.340364187955856,0
114680,-0.340157032012939,0
114790,-0.34160715341568,0
114900,-0.34160715341568,0
115010,-0.341192841529846,0
115120,-0.341192841529846,0
115230,-0.341814309358597,0
115340,-0.341399997472763,0
115450,-0.339742720127106,0
115560,-0.340985685586929,0
115670,-0.342850118875504,0
115780,-0.34160715341568,0
115890,-0.34160715341568,0
115990,-0.342228621244431,0
116100,-0.34243580698967,0
116210,-0.34077849984169,0
116320,-0.341399997472763,0
116430,-0.340985685586929,0
116540,-0.340985685586929,0
116650,-0.340985685586929,0
116760,-0.341399997472763,0
116870,-0.34077849984169,0
116980,-0.340985685586929,0
117090,-0.34077849984169,0
117200,-0.340985685586929,0
117300,-0.342642962932587,0
117410,-0.342228621244431,0
117520,-0.34077849984169,0
117630,-0.340571343898773,0
117740,-0.34077849984169,0
117850,-0.342021465301514,0
117960,-0.340985685586929,0
118070,-0.342021465301514,0
118180,-0.340985685586929,0
118290,-0.34243580698967,0
118400,-0.342021465301514,0
118510,-0.34243580698967,0
118620,-0.340985685586929,0
118720,-0.341814309358597,0
118830,-0.34160715341568,0
118940,-0.34160715341568,0
119050,-0.34160715341568,0
119160,-0.341399997472763,0
119270,-0.34077849984169,0
119380,-0.34243580698967,0
119490,-0.34077849984169,0
119600,-0.340571343898773,0
119710,-0.341192841529846,0
119820,-0.340571343898773,0
119930,-0.341399997472763,0
120030,-0.340364187955856,0
120140,-0.341192841529846,0
120250,-0.341814309358597,0
120360,-0.341399997472763,0
120470,-0.34160715341568,0
120580,-0.340985685586929,0
120690,-0.341399997472763,0
120800,-0.341192841529846,0
120910,-0.342021465301514,0
121020,-0.34160715341568,0
121130,-0.341192841529846,0
121240,-0.34077849984169,0
121350,-0.341192841529846,0
121450,-0.340985685586929,0
121560,-0.34160715341568,0
121670,-0.34160715341568,0
121780,-0.341399997472763,0
121890,-0.340157032012939,0
122000,-0.340985685586929,0
122110,-0.340571343898773,0
122220,-0.340985685586929,0
122330,-0.34243580698967,0
122440,-0.340571343898773,0
122550,-0.340571343898773,0
122660,-0.340364187955856,0
122760,-0.34077849984169,0
122870,-0.341399997472763,0
122980,-0.340985685586929,0
123090,-0.341399997472763,0
123200,-0.34305727481842,0
123310,-0.341192841529846,0
123420,-0.34160715341568,0
123530,-0.340985685586929,0
123640,-0.34077849984169,0
123750,-0.341399997472763,0
123860,-0.34077849984169,0
123970,-0.340985685586929,0
124080,-0.339742720127106,0
124180,-0.34160715341568,0
124290,-0.34160715341568,0
124400,-0.340985685586929,0
124510,-0.341192841529846,0
124620,-0.339949876070023,0
124730,-0.341399997472763,0
124840,-0.340985685586929,0
124950,-0.34160715341568,0
125060,-0.341399997472763,0
125170,-0.340364187955856,0
125280,-0.341399997472763,0
125390,-0.341399997472763,0
125490,-0.34160715341568,0
125600,-0.34077849984169,0
125710,-0.340571343898773,0
125820,-0.340985685586929,0
125930,-0.341814309358597,0
126040,-0.341399997472763,0
126150,-0.343678742647171,0
126260,-0.34077849984169,0
126370,-0.340571343898773,0
126480,-0.341814309358597,0
126590,-0.342228621244431,0
126700,-0.340985685586929,0
126810,-0.341192841529846,0
126910,-0.34160715341568,0
127020,-0.339742720127106,0
127130,-0.34160715341568,0
127240,-0.340571343898773,0
127350,-0.34160715341568,0
127460,-0.342021465301514,0
127570,-0.34077849984169,0
127680,-0.340985685586929,0
127790,-0.341399997472763,0
127900,-0.34077849984169,0
128010,-0.340985685586929,0
128120,-0.340985685586929,0
128220,-0.34160715341568,0
128330,-0.340571343898773,0
128440,-0.342228621244431,0
128550,-0.34077849984169,0
128660,-0.341814309358597,0
128770,-0.341814309358597,0
128880,-0.340985685586929,0
128990,-0.340985685586929,0
129100,-0.34160715341568,0
129210,-0.342642962932587,0
129320,-0.340985685586929,0
129430,-0.34160715341568,0
129540,-0.340571343898773,0
129640,-0.34077849984169,0
129750,-0.34160715341568,0
129860,-0.341814309358597,0
129970,-0.340571343898773,0
130080,-0.342021465301514,0
130190,-0.34077849984169,0
130300,-0.341399997472763,0
130410,-0.341399997472763,0
130520,-0.342228621244431,0
130630,-0.342228621244431,0
130740,-0.340571343898773,0
130850,-0.34160715341568,0
130950,-0.341399997472763,0
131060,-0.342021465301514,0
131170,-0.340985685586929,0
131280,-0.341814309358597,0
131390,-0.342642962932587,0
131500,-0.341399997472763,0
131610,-0.341399997472763,0
131720,-0.341192841529846,0
131830,-0.34243580698967,0
131940,-0.340571343898773,0
132050,-0.340985685586929,0
132160,-0.341192841529846,0
132270,-0.341399997472763,0
132370,-0.34077849984169,0
132480,-0.341814309358597,0
132590,-0.341399997472763,0
132700,-0.341399997472763,0
132810,-0.34243580698967,0
132920,-0.342228621244431,0
133030,-0.34077849984169,0
133140,-0.341814309358597,0
133250,-0.341192841529846,0
133360,-0.34077849984169,0
133470,-0.341192841529846,0
133580,-0.34160715341568,0
133680,-0.342642962932587,0
133790,-0.34160715341568,0
133900,-0.341192841529846,0
134010,-0.342021465301514,0
134120,-0.340364187955856,0
134230,-0.34160715341568,0
134340,-0.342021465301514,0
134450,-0.34077849984169,0
134560,-0.34160715341568,0
134670,-0.342021465301514,0
134780,-0.34160715341568,0
134890,-0.340985685586929,0
135000,-0.341399997472763,0
135100,-0.341399997472763,0
135210,-0.341814309358597,0
135320,-0.341814309358597,0
135430,-0.342228621244431,0
135540,-0.34160715341568,0
135650,-0.340571343898773,0
135760,-0.340985685586929,0
135870,-0.34160715341568,0
135980,-0.340985685586929,0
136090,-0.342021465301514,0
136200,-0.341399997472763,0
136310,-0.342021465301514,0
136410,-0.34160715341568,0
136520,-0.342228621244431,0
136630,-0.34160715341568,0
136740,-0.34160715341568,0
136850,-0.34243580698967,0
136960,-0.34160715341568,0
137070,-0.341814309358597,0
137180,-0.340571343898773,0
137290,-0.34160715341568,0
137400,-0.341814309358597,0
137510,-0.34077849984169,0
137620,-0.341399997472763,0
137730,-0.341814309358597,0
137830,-0.341814309358597,0
137940,-0.340571343898773,0
138050,-0.341399997472763,0
138160,-0.340985685586929,0
138270,-0.341399997472763,0
138380,-0.34077849984169,0
138490,-0.341192841529846,0
138600,-0.34160715341568,0
138710,-0.340985685586929,0
138820,-0.342021465301514,0
138930,-0.341399997472763,0
139040,-0.340364187955856,0
139140,-0.340364187955856,0
139250,-0.340985685586929,0
139360,-0.341192841529846,0
139470,-0.341814309358597,0
139580,-0.34160715341568,0
139690,-0.342021465301514,0
139800,-0.341399997472763,0
139910,-0.34160715341568,0
140020,-0.341192841529846,0
140130,-0.340985685586929,0
140240,-0.341814309358597,0
140350,-0.341192841529846,0
140460,-0.342228621244431,0
140560,-0.341192841529846,0
140670,-0.340571343898773,0
140780,-0.34160715341568,0
140890,-0.341814309358597,0
141000,-0.342021465301514,0
141110,-0.341399997472763,0
141220,-0.34160715341568,0
141330,-0.341192841529846,0
141440,-0.341814309358597,0
141550,-0.341814309358597,0
141660,-0.34160715341568,0
141770,-0.34077849984169,0
141870,-0.341192841529846,0
141980,-0.340985685586929,0
142090,-0.34243580698967,0
142200,-0.340985685586929,0
142310,-0.342228621244431,0
142420,-0.34077849984169,0
142530,-0.341814309358597,0
142640,-0.34243580698967,0
142750,-0.341399997472763,0
142860,-0.340364187955856,0
142970,-0.340985685586929,0
143080,-0.341192841529846,0
143190,-0.340157032012939,0
143290,-0.342228621244431,0
143400,-0.342228621244431,0
143510,-0.340985685586929,0
143620,-0.341192841529846,0
143730,-0.340985685586929,0
143840,-0.341399997472763,0
143950,-0.34243580698967,0
144060,-0.342021465301514,0
144170,-0.34077849984169,0
144280,-0.342021465301514,0
144390,-0.340985685586929,0
144500,-0.34077849984169,0
144600,-0.341399997472763,0
144710,-0.341399997472763,0
144820,-0.34243580698967,0
144930,-0.340364187955856,0
145040,-0.341192841529846,0
145150,-0.341814309358597,0
145260,-0.342021465301514,0
145370,-0.341192841529846,0
145480,-0.342228621244431,0
145590,-0.340985685586929,0
145700,-0.340985685586929,0
145810,-0.341399997472763,0
145920,-0.342228621244431,0
146020,-0.342642962932587,0
146130,-0.341399997472763,0
146240,-0.340571343898773,0
146350,-0.341814309358597,0
146460,-0.340571343898773,0
146570,-0.341399997472763,0
146680,-0.340985685586929,0
146790,-0.341814309358597,0
146900,-0.340571343898773,0
147010,-0.340571343898773,0
147120,-0.341399997472763,0
147230,-0.34160715341568,0
147330,-0.341192841529846,0
147440,-0.340571343898773,0
147550,-0.34077849984169,0
147660,-0.340364187955856,0
147770,-0.34243580698967,0
147880,-0.341814309358597,0
147990,-0.342021465301514,0
148100,-0.342228621244431,0
148210,-0.341399997472763,0
148320,-0.340985685586929,0
148430,-0.342021465301514,0
148540,-0.341399997472763,0
148650,-0.340985685586929,0
148750,-0.340985685586929,0
148860,-0.341399997472763,0
148970,-0.340571343898773,0
149080,-0.341192841529846,0
149190,-0.341814309358597,0
149300,-0.342021465301514,0
149410,-0.340985685586929,0
149520,-0.341399997472763,0
149630,-0.341192841529846,0
149740,-0.342021465301514,0
149850,-0.340985685586929,0
149960,-0.340157032012939,0
150060,-0.34160715341568,0
150170,-0.340571343898773,0
150280,-0.340364187955856,0
150390,-0.341399997472763,0
150500,-0.341399997472763,0
150610,-0.342021465301514,0
150720,-0.341399997472763,0
150830,-0.340571343898773,0
150940,-0.341814309358597,0
151050,-0.34243580698967,0
151160,-0.342021465301514,0
151270,-0.341399997472763,0
151380,-0.340985685586929,0
151480,-0.341399997472763,0
151590,-0.341814309358597,0
151700,-0.342228621244431,0
151810,-0.341814309358597,0
151920,-0.34160715341568,0
152030,-0.341814309358597,0
152140,-0.34077849984169,0
152250,-0.340364187955856,0
152360,-0.340985685586929,0
152470,-0.34077849984169,0
152580,-0.340985685586929,0
152690,-0.343471586704254,0
152790,-0.341814309358597,0
152900,-0.340571343898773,0
153010,-0.341399997472763,0
153120,-0.341192841529846,0
153230,-0.34077849984169,0
153340,-0.341399997472763,0
153450,-0.342021465301514,0
153560,-0.341399997472763,0
153670,-0.34243580698967,0
153780,-0.341814309358597,0
153890,-0.342228621244431,0
154000,-0.340985685586929,0
154110,-0.341192841529846,0
154210,-0.341399997472763,0
154320,-0.342228621244431,0
154430,-0.34077849984169,0
154540,-0.34077849984169,0
154650,-0.340985685586929,0
154760,-0.342021465301514,0
154870,-0.341399997472763,0
154980,-0.340985685586929,0
155090,-0.342021465301514,0
155200,-0.340985685586929,0
155310,-0.34160715341568,0
155420,-0.342021465301514,0
155530,-0.34160715341568,0
155630,-0.341192841529846,0
155740,-0.342228621244431,0
155850,-0.341192841529846,0
155960,-0.340364187955856,0
156070,-0.34160715341568,0
156180,-0.342228621244431,0
156290,-0.34160715341568,0
156400,-0.342021465301514,0
156510,-0.340985685586929,0
156620,-0.340985685586929,0
156730,-0.340985685586929,0
156840,-0.342228621244431,0
156940,-0.341399997472763,0
157050,-0.341814309358597,0
157160,-0.340157032012939,0
157270,-0.340985685586929,0
157380,-0.34077849984169,0
157490,-0.340985685586929,0
157600,-0.34160715341568,0
157710,-0.342021465301514,0
157820,-0.341399997472763,0
157930,-0.34077849984169,0
158040,-0.341399997472763,0
158150,-0.341814309358597,0
158260,-0.34160715341568,0
158360,-0.341399997472763,0
158470,-0.34243580698967,0
158580,-0.341814309358597,0
158690,-0.340985685586929,0
158800,-0.34243580698967,0
158910,-0.341399997472763,0
159020,-0.341814309358597,0
159130,-0.34243580698967,0
159240,-0.341814309358597,0
159350,-0.340571343898773,0
159460,-0.341399997472763,0
159570,-0.341814309358597,0
159670,-0.341192841529846,0
159780,-0.342228621244431,0
159890,-0.341814309358597,0
160000,-0.341192841529846,0
160110,-0.341192841529846,0
160220,-0.342021465301514,0
160330,-0.341814309358597,0
160440,-0.342021465301514,0
160550,-0.341814309358597,0
160660,-0.34160715341568,0
160770,-0.341192841529846,0
160880,-0.341192841529846,0
160990,-0.34243580698967,0
161090,-0.341814309358597,0
161200,-0.34160715341568,0
161310,-0.341399997472763,0
161420,-0.340364187955856,0
161530,-0.34243580698967,0
161640,-0.341814309358597,0
161750,-0.341192841529846,0
161860,-0.342850118875504,0
161970,-0.340364187955856,0
162080,-0.340364187955856,0
162190,-0.34077849984169,0
162300,-0.342021465301514,0
162400,-0.34243580698967,0
162510,-0.341399997472763,0
162620,-0.341192841529846,0
162730,-0.341814309358597,0
162840,-0.34160715341568,0
162950,-0.342642962932587,0
163060,-0.341192841529846,0
163170,-0.341399997472763,0
163280,-0.34160715341568,0
163390,-0.341399997472763,0
163500,-0.34077849984169,0
163610,-0.340571343898773,0
163720,-0.341814309358597,0
163820,-0.34160715341568,0
163930,-0.342228621244431,0
164040,-0.341192841529846,0
164150,-0.341399997472763,0
164260,-0.342642962932587,0
164370,-0.341399997472763,0
164480,-0.34077849984169,0
164590,-0.340985685586929,0
164700,-0.34077849984169,0
164810,-0.34160715341568,0
164920,-0.34160715341568,0
165030,-0.341192841529846,0
165130,-0.341399997472763,0
165240,-0.341192841529846,0
165350,-0.34160715341568,0
165460,-0.341192841529846,0
165570,-0.341192841529846,0
165680,-0.34160715341568,0
165790,-0.341814309358597,0
165900,-0.34243580698967,0
166010,-0.339742720127106,0
166120,-0.34160715341568,0
166230,-0.341814309358597,0
166340,-0.341399997472763,0
166450,-0.34243580698967,0
166550,-0.34160715341568,0
166660,-0.34243580698967,0
166770,-0.34243580698967,0
166880,-0.339949876070023,0
166990,-0.342021465301514,0
167100,-0.34243580698967,0
167210,-0.342228621244431,0
167320,-0.341814309358597,0
167430,-0.34243580698967,0
167540,-0.342850118875504,0
167650,-0.341399997472763,0
167760,-0.341814309358597,0
167860,-0.342228621244431,0
167970,-0.34243580698967,0
168080,-0.341399997472763,0
168190,-0.342228621244431,0
168300,-0.341814309358597,0
168410,-0.340571343898773,0
168520,-0.342021465301514,0
168630,-0.34243580698967,0
168740,-0.342021465301514,0
168850,-0.341192841529846,0
168960,-0.341399997472763,0
169070,-0.341399997472763,0
169180,-0.342228621244431,0
169280,-0.341814309358597,0
169390,-0.340571343898773,0
169500,-0.341814309358597,0
169610,-0.341192841529846,0
169720,-0.340985685586929,0
169830,-0.342021465301514,0
169940,-0.340985685586929,0
170050,-0.342021465301514,0
170160,-0.342021465301514,0
170270,-0.340571343898773,0
170380,-0.34160715341568,0
170490,-0.340985685586929,0
170590,-0.341192841529846,0
170700,-0.34077849984169,0
170810,-0.341399997472763,0
170920,-0.34077849984169,0
171030,-0.341192841529846,0
171140,-0.34160715341568,0
171250,-0.340985685586929,0
171360,-0.341814309358597,0
171470,-0.339949876070023,0
171580,-0.339949876070023,0
171690,-0.34243580698967,0
171800,-0.340985685586929,0
171910,-0.340985685586929,0
172010,-0.342021465301514,0
172120,-0.340985685586929,0
172230,-0.341399997472763,0
172340,-0.340571343898773,0
172450,-0.342021465301514,0
172560,-0.342021465301514,0
172670,-0.341399997472763,0
172780,-0.339949876070023,0
172890,-0.341192841529846,0
173000,-0.341399997472763,0
173110,-0.340571343898773,0
173220,-0.34243580698967,0
173320,-0.342021465301514,0
173430,-0.341814309358597,0
173540,-0.341399997472763,0
173650,-0.341814309358597,0
173760,-0.342021465301514,0
173870,-0.34077849984169,0
173980,-0.34243580698967,0
174090,-0.342021465301514,0
174200,-0.341814309358597,0
174310,-0.341399997472763,0
174420,-0.341399997472763,0
174530,-0.34160715341568,0
174640,-0.341399997472763,0
174740,-0.34160715341568,0
174850,-0.34160715341568,0
174960,-0.34243580698967,0
175070,-0.34160715341568,0
175180,-0.341192841529846,0
175290,-0.342642962932587,0
175400,-0.34160715341568,0
175510,-0.342642962932587,0
175620,-0.341399997472763,0
175730,-0.342021465301514,0
175840,-0.341399997472763,0
175950,-0.340571343898773,0
176050,-0.341399997472763,0
176160,-0.342642962932587,0
176270,-0.34160715341568,0
176380,-0.341399997472763,0
176490,-0.340985685586929,0
176600,-0.34077849984169,0
176710,-0.341399997472763,0
176820,-0.342228621244431,0
176930,-0.340985685586929,0
177040,-0.341814309358597,0
177150,-0.341399997472763,0
177260,-0.341192841529846,0
177370,-0.341192841529846,0
177470,-0.340571343898773,0
177580,-0.341814309358597,0
177690,-0.342642962932587,0
177800,-0.341814309358597,0
177910,-0.340985685586929,0
178020,-0.342228621244431,0
178130,-0.342228621244431,0
178240,-0.341399997472763,0
178350,-0.340985685586929,0
178460,-0.341192841529846,0
178570,-0.340985685586929,0
178680,-0.34243580698967,0
178780,-0.342021465301514,0
178890,-0.340571343898773,0
179000,-0.340985685586929,0
179110,-0.341192841529846,0
179220,-0.340985685586929,0
179330,-0.34160715341568,0
179440,-0.341192841529846,0
179550,-0.340985685586929,0
179660,-0.341192841529846,0
179770,-0.34077849984169,0
179880,-0.341814309358597,0
179990,-0.340985685586929,0
180100,-0.341399997472763,0
180200,-0.34160715341568,0
180310,-0.341192841529846,0
180420,-0.342228621244431,0
180530,-0.340571343898773,0
180640,-0.34160715341568,0
180750,-0.341814309358597,0
180860,-0.342850118875504,0
180970,-0.34077849984169,0
181080,-0.34077849984169,0
181190,-0.34243580698967,0
181300,-0.34077849984169,0
181410,-0.341192841529846,0
181510,-0.34160715341568,0
181620,-0.341399997472763,0
181730,-0.342228621244431,0
181840,-0.34077849984169,0
181950,-0.34160715341568,0
182060,-0.340985685586929,0
182170,-0.34077849984169,0
182280,-0.342228621244431,0
182390,-0.34160715341568,0
182500,-0.34077849984169,0
182610,-0.342228621244431,0
182720,-0.341399997472763,0
182830,-0.340985685586929,0
182930,-0.340571343898773,0
183040,-0.341192841529846,0
183150,-0.34160715341568,0
183260,-0.341814309358597,0
183370,-0.342228621244431,0
183480,-0.341192841529846,0
183590,-0.341399997472763,0
183700,-0.341814309358597,0
183810,-0.34243580698967,0
183920,-0.341192841529846,0
184030,-0.341814309358597,0
184140,-0.341192841529846,0
184240,-0.340157032012939,0
184350,-0.342228621244431,0
184460,-0.34160715341568,0
184570,-0.342228621244431,0
184680,-0.34160715341568,0
184790,-0.34160715341568,0
184900,-0.342850118875504,0
185010,-0.342021465301514,0
185120,-0.34160715341568,0
185230,-0.342228621244431,0
185340,-0.341814309358597,0
185450,-0.341192841529846,0
185560,-0.341814309358597,0
185660,-0.34243580698967,0
185770,-0.342021465301514,0
185880,-0.34160715341568,0
185990,-0.341814309358597,0
186100,-0.340364187955856,0
186210,-0.342228621244431,0
186320,-0.34077849984169,0
186430,-0.341192841529846,0
186540,-0.339949876070023,0
186650,-0.341399997472763,0
186760,-0.34160715341568,0
186870,-0.342021465301514,0
186970,-0.341814309358597,0
187080,-0.342021465301514,0
187190,-0.340985685586929,0
187300,-0.340985685586929,0
187410,-0.341192841529846,0
187520,-0.342021465301514,0
187630,-0.342228621244431,0
187740,-0.341192841529846,0
187850,-0.342021465301514,0
187960,-0.34305727481842,0
188070,-0.34160715341568,0
188180,-0.341399997472763,0
188290,-0.342228621244431,0
188390,-0.342642962932587,0
188500,-0.342850118875504,0
188610,-0.341192841529846,0
188720,-0.341399997472763,0
188830,-0.34077849984169,0
188940,-0.34243580698967,0
189050,-0.34243580698967,0
189160,-0.340985685586929,0
189270,-0.341399997472763,0
189380,-0.341814309358597,0
189490,-0.341399997472763,0
189600,-0.34243580698967,0
189700,-0.341399997472763,0
189810,-0.340157032012939,0
189920,-0.342850118875504,0
190030,-0.341399997472763,0
190140,-0.342228621244431,0
190250,-0.340985685586929,0
190360,-0.34160715341568,0
190470,-0.343471586704254,0
190580,-0.340985685586929,0
190690,-0.340985685586929,0
190800,-0.340985685586929,0
190910,-0.341399997472763,0
191020,-0.34077849984169,0
191120,-0.340985685586929,0
191230,-0.341814309358597,0
191340,-0.342021465301514,0
191450,-0.34160715341568,0
191560,-0.341814309358597,0
191670,-0.342228621244431,0
191780,-0.341192841529846,0
191890,-0.342642962932587,0
192000,-0.342021465301514,0
192110,-0.341814309358597,0
192220,-0.34305727481842,0
192330,-0.341192841529846,0
192430,-0.341814309358597,0
192540,-0.341192841529846,0
192650,-0.340571343898773,0
192760,-0.34160715341568,0
192870,-0.340985685586929,0
192980,-0.34243580698967,0
193090,-0.342642962932587,0
193200,-0.341814309358597,0
193310,-0.34160715341568,0
193420,-0.340985685586929,0
193530,-0.341814309358597,0
193640,-0.341814309358597,0
193750,-0.341399997472763,0
193850,-0.342642962932587,0
193960,-0.341192841529846,0
194070,-0.34077849984169,0
194180,-0.341192841529846,0
194290,-0.341814309358597,0
194400,-0.34077849984169,0
194510,-0.342021465301514,0
194620,-0.340364187955856,0
194730,-0.342021465301514,0
194840,-0.34077849984169,0
194950,-0.342850118875504,0
195060,-0.340985685586929,0
195160,-0.342021465301514,0
195270,-0.34160715341568,0
195380,-0.341814309358597,0
195490,-0.340985685586929,0
195600,-0.341192841529846,0
195710,-0.34243580698967,0
195820,-0.34160715341568,0
195930,-0.340985685586929,0
196040,-0.340985685586929,0
196150,-0.342228621244431,0
196260,-0.340985685586929,0
196370,-0.34160715341568,0
196480,-0.34160715341568,0
196580,-0.34243580698967,0
196690,-0.342021465301514,0
196800,-0.341192841529846,0
196910,-0.341814309358597,0
197020,-0.341814309358597,0
197130,-0.342021465301514,0
197240,-0.341399997472763,0
197350,-0.34243580698967,0
197460,-0.341192841529846,0
197570,-0.340985685586929,0
197680,-0.34160715341568,0
197790,-0.342021465301514,0
197890,-0.34243580698967,0
198000,-0.340571343898773,0
198110,-0.34077849984169,0
198220,-0.342021465301514,0
198330,-0.342642962932587,0
198440,-0.341192841529846,0
198550,-0.341814309358597,0
198660,-0.341399997472763,0
198770,-0.34077849984169,0
198880,-0.341192841529846,0
198990,-0.340985685586929,0
199100,-0.341399997472763,0
199210,-0.342021465301514,0
199310,-0.34160715341568,0
199420,-0.341192841529846,0
199530,-0.342021465301514,0
199640,-0.342228621244431,0
199750,-0.340985685586929,0
199860,-0.34160715341568,0
199970,-0.341399997472763,0
200080,-0.34243580698967,0
200190,-0.342021465301514,0
200300,-0.34077849984169,0
200410,-0.340985685586929,0
200520,-0.34160715341568,0
200620,-0.341399997472763,0
200730,-0.34077849984169,0
200840,-0.34160715341568,0
200950,-0.342021465301514,0
201060,-0.342021465301514,0
201170,-0.34077849984169,0
201280,-0.341192841529846,0
201390,-0.340364187955856,0
201500,-0.342021465301514,0
201610,-0.341399997472763,0
201720,-0.341814309358597,0
201830,-0.340571343898773,0
201940,-0.341192841529846,0
202040,-0.341814309358597,0
202150,-0.341814309358597,0
202260,-0.34077849984169,0
202370,-0.341399997472763,0
202480,-0.341814309358597,0
202590,-0.34160715341568,0
202700,-0.342850118875504,0
202810,-0.341192841529846,0
202920,-0.342228621244431,0
203030,-0.341399997472763,0
203140,-0.340985685586929,0
203250,-0.342642962932587,0
203350,-0.342021465301514,0
203460,-0.34160715341568,0
203570,-0.341814309358597,0
203680,-0.342228621244431,0
203790,-0.34243580698967,0
203900,-0.341814309358597,0
204010,-0.342228621244431,0
204120,-0.34243580698967,0
204230,-0.34160715341568,0
204340,-0.342021465301514,0
204450,-0.34160715341568,0
204560,-0.341399997472763,0
204670,-0.340571343898773,0
204770,-0.34305727481842,0
204880,-0.341192841529846,0
204990,-0.341399997472763,0
205100,-0.34077849984169,0
205210,-0.340571343898773,0
205320,-0.341399997472763,0
205430,-0.342228621244431,0
205540,-0.341399997472763,0
205650,-0.34160715341568,0
205760,-0.341192841529846,0
205870,-0.341814309358597,0
205980,-0.341399997472763,0
206080,-0.341399997472763,0
206190,-0.341814309358597,0
206300,-0.342228621244431,0
206410,-0.34243580698967,0
206520,-0.340364187955856,0
206630,-0.342228621244431,0
206740,-0.341814309358597,0
206850,-0.342228621244431,0
206960,-0.34077849984169,0
207070,-0.340571343898773,0
207180,-0.341814309358597,0
207290,-0.341814309358597,0
207400,-0.341399997472763,0
207500,-0.341399997472763,0
207610,-0.341192841529846,0
207720,-0.342642962932587,0
207830,-0.34243580698967,0
207940,-0.342021465301514,0
208050,-0.34160715341568,0
208160,-0.340364187955856,0
208270,-0.340985685586929,0
208380,-0.342021465301514,0
208490,-0.342642962932587,0
208600,-0.341192841529846,0
208710,-0.341192841529846,0
208810,-0.342228621244431,0
208920,-0.34160715341568,0
209030,-0.34077849984169,0
209140,-0.341399997472763,0
209250,-0.340571343898773,0
209360,-0.341399997472763,0
209470,-0.34077849984169,0
209580,-0.341192841529846,0
209690,-0.34160715341568,0
209800,-0.341814309358597,0
209910,-0.341814309358597,0
210020,-0.342228621244431,0
210130,-0.342021465301514,0
210230,-0.341399997472763,0
210340,-0.342228621244431,0
210450,-0.34160715341568,0
210560,-0.34077849984169,0
210670,-0.341192841529846,0
210780,-0.341192841529846,0
210890,-0.341399997472763,0
211000,-0.340985685586929,0
211110,-0.342850118875504,0
211220,-0.341814309358597,0
211330,-0.340571343898773,0
211440,-0.341192841529846,0
211540,-0.34077849984169,0
211650,-0.34160715341568,0
211760,-0.341814309358597,0
211870,-0.342228621244431,0
211980,-0.342642962932587,0
212090,-0.341814309358597,0
212200,-0.342021465301514,0
212310,-0.34160715341568,0
212420,-0.342228621244431,0
212530,-0.34160715341568,0
212640,-0.341192841529846,0
212750,-0.34160715341568,0
212860,-0.34160715341568,0
212960,-0.341399997472763,0
213070,-0.341192841529846,0
213180,-0.341192841529846,0
213290,-0.342021465301514,0
213400,-0.340985685586929,0
213510,-0.342021465301514,0
213620,-0.342642962932587,0
213730,-0.341399997472763,0
213840,-0.34160715341568,0
213950,-0.342021465301514,0
214060,-0.342021465301514,0
214170,-0.340157032012939,0
214270,-0.34160715341568,0
214380,-0.342021465301514,0
214490,-0.341399997472763,0
214600,-0.342021465301514,0
214710,-0.341192841529846,0
214820,-0.342021465301514,0
214930,-0.341192841529846,0
215040,-0.341399997472763,0
215150,-0.341814309358597,0
215260,-0.342021465301514,0
215370,-0.342021465301514,0
215480,-0.342850118875504,0
215590,-0.34243580698967,0
215690,-0.340364187955856,0
215800,-0.341814309358597,0
215910,-0.34077849984169,0
216020,-0.34160715341568,0
216130,-0.341399997472763,0
216240,-0.34160715341568,0
216350,-0.341399997472763,0
216460,-0.34160715341568,0
216570,-0.341399997472763,0
216680,-0.341814309358597,0
216790,-0.34160715341568,0
216900,-0.34160715341568,0
217000,-0.342021465301514,0
217110,-0.342228621244431,0
217220,-0.341399997472763,0
217330,-0.340985685586929,0
217440,-0.342850118875504,0
217550,-0.342021465301514,0
217660,-0.342021465301514,0
217770,-0.342228621244431,0
217880,-0.34243580698967,0
217990,-0.341192841529846,0
218100,-0.340985685586929,0
218210,-0.341399997472763,0
218320,-0.342021465301514,0
218420,-0.342228621244431,0
218530,-0.34243580698967,0
218640,-0.340571343898773,0
218750,-0.342021465301514,0
218860,-0.34160715341568,0
218970,-0.34160715341568,0
219080,-0.340985685586929,0
219190,-0.340364187955856,0
219300,-0.34243580698967,0
219410,-0.341814309358597,0
219520,-0.342228621244431,0
219630,-0.341814309358597,0
219730,-0.341814309358597,0
219840,-0.341192841529846,0
219950,-0.341192841529846,0
220060,-0.34243580698967,0
220170,-0.34243580698967,0
220280,-0.342021465301514,0
220390,-0.341192841529846,0
220500,-0.34077849984169,0
220610,-0.34243580698967,0
220720,-0.341814309358597,0
220830,-0.342021465301514,0
220940,-0.34160715341568,0
221050,-0.34160715341568,0
221150,-0.340985685586929,0
221260,-0.34160715341568,0
221370,-0.34077849984169,0
221480,-0.341399997472763,0
221590,-0.34077849984169,0
221700,-0.341399997472763,0
221810,-0.342021465301514,0
221920,-0.342228621244431,0
222030,-0.34160715341568,0
222140,-0.340985685586929,0
222250,-0.342642962932587,0
222360,-0.341814309358597,0
222460,-0.342021465301514,0
222570,-0.341399997472763,0
222680,-0.34160715341568,0
222790,-0.34077849984169,0
222900,-0.341814309358597,0
223010,-0.342228621244431,0
223120,-0.341814309358597,0
223230,-0.342021465301514,0
223340,-0.34305727481842,0
223450,-0.34243580698967,0
223560,-0.342228621244431,0
223670,-0.341814309358597,0
223780,-0.34243580698967,0
223880,-0.34160715341568,0
223990,-0.341814309358597,0
224100,-0.341192841529846,0
224210,-0.341399997472763,0
224320,-0.341399997472763,0
224430,-0.341192841529846,0
224540,-0.341814309358597,0
224650,-0.341192841529846,0
224760,-0.34305727481842,0
224870,-0.340571343898773,0
224980,-0.341814309358597,0
225090,-0.340985685586929,0
225190,-0.341192841529846,0
225300,-0.341399997472763,0
225410,-0.340985685586929,0
225520,-0.342021465301514,0
225630,-0.342021465301514,0
225740,-0.34243580698967,0
225850,-0.341814309358597,0
225960,-0.34160715341568,0
226070,-0.341399997472763,0
226180,-0.341192841529846,0
226290,-0.341399997472763,0
226400,-0.34243580698967,0
226510,-0.34160715341568,0
226610,-0.342021465301514,0
226720,-0.342021465301514,0
226830,-0.341814309358597,0
226940,-0.342228621244431,0
227050,-0.341814309358597,0
227160,-0.341399997472763,0
227270,-0.341814309358597,0
227380,-0.342642962932587,0
227490,-0.341814309358597,0
227600,-0.342228621244431,0
227710,-0.34077849984169,0
227820,-0.341814309358597,0
227920,-0.340985685586929,0
228030,-0.340985685586929,0
228140,-0.341814309358597,0
228250,-0.34160715341568,0
228360,-0.34160715341568,0
228470,-0.341192841529846,0
228580,-0.341814309358597,0
228690,-0.34160715341568,0
228800,-0.34077849984169,0
228910,-0.342021465301514,0
229020,-0.342850118875504,0
229130,-0.342021465301514,0
229240,-0.34160715341568,0
229340,-0.342228621244431,0
229450,-0.340985685586929,0
229560,-0.341814309358597,0
229670,-0.341814309358597,0
229780,-0.341192841529846,0
229890,-0.342642962932587,0
230000,-0.34160715341568,0
230110,-0.34160715341568,0
230220,-0.341192841529846,0
230330,-0.342228621244431,0
230440,-0.34077849984169,0
230550,-0.342228621244431,0
230650,-0.34160715341568,0
230760,-0.340985685586929,0
230870,-0.341399997472763,0
230980,-0.340571343898773,0
231090,-0.34160715341568,0
231200,-0.342021465301514,0
231310,-0.34160715341568,0
231420,-0.34077849984169,0
231530,-0.34160715341568,0
231640,-0.342021465301514,0
231750,-0.341192841529846,0
231860,-0.342021465301514,0
231970,-0.34160715341568,0
232070,-0.341814309358597,0
232180,-0.342021465301514,0
232290,-0.341814309358597,0
232400,-0.340364187955856,0
232510,-0.341814309358597,0
232620,-0.34243580698967,0
232730,-0.342021465301514,0
232840,-0.341814309358597,0
232950,-0.341399997472763,0
233060,-0.341192841529846,0
233170,-0.341399997472763,0
233280,-0.34160715341568,0
233380,-0.341192841529846,0
233490,-0.341399997472763,0
233600,-0.341814309358597,0
233710,-0.343264430761337,0
233820,-0.34160715341568,0
233930,-0.34160715341568,0
234040,-0.341814309358597,0
234150,-0.342021465301514,0
234260,-0.342228621244431,0
234370,-0.342228621244431,0
234480,-0.341192841529846,0
234590,-0.34243580698967,0
234700,-0.341814309358597,0
234800,-0.34160715341568,0
234910,-0.341814309358597,0
235020,-0.342642962932587,0
235130,-0.341399997472763,0
235240,-0.342021465301514,0
235350,-0.34077849984169,0
235460,-0.34243580698967,0
235570,-0.340985685586929,0
235680,-0.340571343898773,0
235790,-0.342021465301514,0
235900,-0.341399997472763,0
236010,-0.34160715341568,0
236120,-0.34077849984169,0
236220,-0.34243580698967,0
236330,-0.34160715341568,0
236440,-0.34077849984169,0
236550,-0.34160715341568,0
236660,-0.340985685586929,0
236770,-0.341814309358597,0
236880,-0.342021465301514,0
236990,-0.342228621244431,0
237100,-0.341192841529846,0
237210,-0.342850118875504,0
237320,-0.34160715341568,0
237430,-0.342228621244431,0
237530,-0.34305727481842,0
237640,-0.340985685586929,0
237750,-0.341814309358597,0
237860,-0.341192841529846,0
237970,-0.341814309358597,0
238080,-0.341399997472763,0
238190,-0.341814309358597,0
238300,-0.34160715341568,0
238410,-0.341814309358597,0
238520,-0.34160715341568,0
238630,-0.342021465301514,0
238740,-0.34160715341568,0
238850,-0.342228621244431,0
238950,-0.340571343898773,0
239060,-0.34243580698967,0
239170,-0.340571343898773,0
239280,-0.342021465301514,0
239390,-0.340985685586929,0
239500,-0.341814309358597,0
239610,-0.342642962932587,0
239720,-0.341399997472763,0
239830,-0.341399997472763,0
239940,-0.341814309358597,0
240050,-0.341814309358597,0
240160,-0.34243580698967,0
240260,-0.341192841529846,0
240370,-0.342642962932587,0
240480,-0.341814309358597,0
240590,-0.341192841529846,0
240700,-0.34160715341568,0
240810,-0.342228621244431,0
240920,-0.342021465301514,0
241030,-0.341399997472763,0
241140,-0.341814309358597,0
241250,-0.341399997472763,0
241360,-0.34160715341568,0
241470,-0.342850118875504,0
241580,-0.341814309358597,0
241680,-0.34077849984169,0
241790,-0.341814309358597,0
241900,-0.34243580698967,0
242010,-0.342228621244431,0
242120,-0.34160715341568,0
242230,-0.341814309358597,0
242340,-0.340985685586929,0
242450,-0.341399997472763,0
242560,-0.34077849984169,0
242670,-0.340985685586929,0
242780,-0.342850118875504,0
242890,-0.341814309358597,0
242990,-0.341399997472763,0
243100,-0.341399997472763,0
243210,-0.341814309358597,0
243320,-0.342228621244431,0
243430,-0.340985685586929,0
243540,-0.340364187955856,0
243650,-0.342850118875504,0
243760,-0.342021465301514,0
243870,-0.34160715341568,0
243980,-0.340985685586929,0
244090,-0.341399997472763,0
244200,-0.34160715341568,0
244310,-0.342850118875504,0
244410,-0.342021465301514,0
244520,-0.341192841529846,0
244630,-0.341399997472763,0
244740,-0.341192841529846,0
244850,-0.341399997472763,0
244960,-0.341192841529846,0
245070,-0.341814309358597,0
245180,-0.341399997472763,0
245290,-0.342021465301514,0
245400,-0.341399997472763,0
245510,-0.342021465301514,0
245620,-0.341399997472763,0
245720,-0.34077849984169,0
245830,-0.34077849984169,0
245940,-0.342021465301514,0
246050,-0.34160715341568,0
246160,-0.342642962932587,0
246270,-0.34160715341568,0
246380,-0.341399997472763,0
246490,-0.341814309358597,0
246600,-0.342850118875504,0
246710,-0.34160715341568,0
246820,-0.340364187955856,0
246930,-0.341192841529846,0
247040,-0.340364187955856,0
247140,-0.34160715341568,0
247250,-0.341192841529846,0
247360,-0.342021465301514,0
247470,-0.34077849984169,0
247580,-0.34160715341568,0
247690,-0.341192841529846,0
247800,-0.34160715341568,0
247910,-0.341192841529846,0
248020,-0.342021465301514,0
248130,-0.341814309358597,0
248240,-0.341814309358597,0
248350,-0.341814309358597,0
248450,-0.341192841529846,0
248560,-0.341192841529846,0
248670,-0.34077849984169,0
248780,-0.342021465301514,0
248890,-0.342228621244431,0
249000,-0.341192841529846,0
249110,-0.341814309358597,0
249220,-0.34243580698967,0
249330,-0.34077849984169,0
249440,-0.341399997472763,0
249550,-0.34077849984169,0
249660,-0.340985685586929,0
249770,-0.34077849984169,0
249870,-0.342021465301514,0
249980,-0.340571343898773,0
250090,-0.34077849984169,0
250200,-0.342228621244431,0
250310,-0.34243580698967,0
250420,-0.34160715341568,0
250530,-0.34243580698967,0
250640,-0.34243580698967,0
250750,-0.342021465301514,0
250860,-0.342021465301514,0
250970,-0.340985685586929,0
251080,-0.342642962932587,0
251180,-0.341399997472763,0
251290,-0.342228621244431,0
251400,-0.34243580698967,0
251510,-0.342642962932587,0
251620,-0.341814309358597,0
251730,-0.341814309358597,0
251840,-0.342228621244431,0
251950,-0.34243580698967,0
252060,-0.341192841529846,0
252170,-0.342850118875504,0
252280,-0.34077849984169,0
252390,-0.341192841529846,0
252500,-0.341814309358597,0
252600,-0.341399997472763,0
252710,-0.34243580698967,0
252820,-0.34243580698967,0
252930,-0.34160715341568,0
253040,-0.34160715341568,0
253150,-0.342228621244431,0
253260,-0.342021465301514,0
253370,-0.342021465301514,0
253480,-0.340571343898773,0
253590,-0.342021465301514,0
253700,-0.34160715341568,0
253810,-0.342642962932587,0
253910,-0.341814309358597,0
254020,-0.341399997472763,0
254130,-0.341814309358597,0
254240,-0.34160715341568,0
254350,-0.34243580698967,0
254460,-0.34077849984169,0
254570,-0.340985685586929,0
254680,-0.341814309358597,0
254790,-0.34243580698967,0
254900,-0.342021465301514,0
255010,-0.342021465301514,0
255120,-0.340985685586929,0
255230,-0.34160715341568,0
255330,-0.342228621244431,0
255440,-0.342021465301514,0
255550,-0.34160715341568,0
255660,-0.342850118875504,0
255770,-0.342021465301514,0
255880,-0.341399997472763,0
255990,-0.342021465301514,0
256100,-0.342021465301514,0
256210,-0.341814309358597,0
256320,-0.341192841529846,0
256430,-0.341814309358597,0
256540,-0.34160715341568,0
256640,-0.34077849984169,0
256750,-0.34160715341568,0
256860,-0.340985685586929,0
256970,-0.34243580698967,0
257080,-0.341814309358597,0
257190,-0.34160715341568,0
257300,-0.342850118875504,0
257410,-0.343264430761337,0
257520,-0.340364187955856,0
257630,-0.342228621244431,0
257740,-0.341192841529846,0
257850,-0.342642962932587,0
257960,-0.34077849984169,0
258060,-0.342021465301514,0
258170,-0.340985685586929,0
258280,-0.341814309358597,0
258390,-0.341192841529846,0
258500,-0.342021465301514,0
258610,-0.341192841529846,0
258720,-0.342021465301514,0
258830,-0.341399997472763,0
258940,-0.340571343898773,0
259050,-0.34160715341568,0
259160,-0.34160715341568,0
259270,-0.342021465301514,0
259370,-0.340985685586929,0
259480,-0.34243580698967,0
259590,-0.341192841529846,0
259700,-0.341399997472763,0
259810,-0.34243580698967,0
259920,-0.34160715341568,0
260030,-0.341192841529846,0
260140,-0.341814309358597,0
260250,-0.34160715341568,0
260360,-0.342228621244431,0
260470,-0.34160715341568,0
260580,-0.342228621244431,0
260690,-0.341192841529846,0
260790,-0.342021465301514,0
260900,-0.341192841529846,0
261010,-0.341192841529846,0
261120,-0.342021465301514,0
261230,-0.342021465301514,0
261340,-0.340985685586929,0
261450,-0.342228621244431,0
261560,-0.342021465301514,0
261670,-0.34243580698967,0
261780,-0.340364187955856,0
261890,-0.341814309358597,0
262000,-0.341814309358597,0
262100,-0.34077849984169,0
262210,-0.341192841529846,0
262320,-0.341192841529846,0
262430,-0.342228621244431,0
262540,-0.342228621244431,0
262650,-0.34160715341568,0
262760,-0.341399997472763,0
262870,-0.342021465301514,0
262980,-0.341399997472763,0
263090,-0.341814309358597,0
263200,-0.340985685586929,0
263310,-0.342850118875504,0
263420,-0.341814309358597,0
263520,-0.34160715341568,0
263630,-0.34160715341568,0
263740,-0.341814309358597,0
263850,-0.341192841529846,0
263960,-0.342228621244431,0
264070,-0.34160715341568,0
264180,-0.341192841529846,0
264290,-0.341399997472763,0
264400,-0.342228621244431,0
264510,-0.341814309358597,0
264620,-0.340985685586929,0
264730,-0.341192841529846,0
264830,-0.341814309358597,0
264940,-0.341814309358597,0
265050,-0.341399997472763,0
265160,-0.341192841529846,0
265270,-0.341814309358597,0
265380,-0.341399997472763,0
265490,-0.34077849984169,0
265600,-0.341814309358597,0
265710,-0.341399997472763,0
265820,-0.342021465301514,0
265930,-0.34077849984169,0
266040,-0.34077849984169,0
266150,-0.342228621244431,0
266250,-0.34160715341568,0
266360,-0.34077849984169,0
266470,-0.34243580698967,0
266580,-0.34243580698967,0
266690,-0.342642962932587,0
266800,-0.340985685586929,0
266910,-0.342021465301514,0
267020,-0.34077849984169,0
267130,-0.341192841529846,0
267240,-0.342021465301514,0
267350,-0.34160715341568,0
267460,-0.340985685586929,0
267560,-0.342021465301514,0
267670,-0.341399997472763,0
267780,-0.34160715341568,0
267890,-0.34305727481842,0
268000,-0.341192841529846,0
268110,-0.341399997472763,0
268220,-0.342642962932587,0
268330,-0.341192841529846,0
268440,-0.342642962932587,0
268550,-0.34243580698967,0
268660,-0.34077849984169,0
268770,-0.34243580698967,0
268880,-0.34243580698967,0
268980,-0.340364187955856,0
269090,-0.342021465301514,0
269200,-0.340985685586929,0
269310,-0.340985685586929,0
269420,-0.340985685586929,0
269530,-0.342021465301514,0
269640,-0.34243580698967,0
269750,-0.341399997472763,0
269860,-0.342021465301514,0
269970,-0.34077849984169,0
270080,-0.341399997472763,0
270190,-0.340985685586929,0
270290,-0.341192841529846,0
270400,-0.343678742647171,0
270510,-0.34243580698967,0
270620,-0.342642962932587,0
270730,-0.34160715341568,0
270840,-0.34243580698967,0
270950,-0.341192841529846,0
271060,-0.342021465301514,0
271170,-0.342021465301514,0
271280,-0.342228621244431,0
271390,-0.341192841529846,0
271500,-0.342642962932587,0
271610,-0.34243580698967,0
271710,-0.34077849984169,0
271820,-0.340985685586929,0
271930,-0.340985685586929,0
272040,-0.34077849984169,0
272150,-0.341814309358597,0
272260,-0.34077849984169,0
272370,-0.34243580698967,0
272480,-0.341399997472763,0
272590,-0.341814309358597,0
272700,-0.341192841529846,0
272810,-0.342021465301514,0
272920,-0.34160715341568,0
273020,-0.342850118875504,0
273130,-0.340571343898773,0
273240,-0.342228621244431,0
273350,-0.340571343898773,0
273460,-0.341814309358597,0
273570,-0.341192841529846,0
273680,-0.342228621244431,0
273790,-0.34160715341568,0
273900,-0.34243580698967,0
274010,-0.341399997472763,0
274120,-0.34160715341568,0
274230,-0.342021465301514,0
274340,-0.342228621244431,0
274440,-0.342228621244431,0
274550,-0.342228621244431,0
274660,-0.341814309358597,0
274770,-0.342850118875504,0
274880,-0.340157032012939,0
274990,-0.34160715341568,0
275100,-0.34160715341568,0
275210,-0.341814309358597,0
275320,-0.342228621244431,0
275430,-0.342642962932587,0
275540,-0.341814309358597,0
275650,-0.341399997472763,0
275750,-0.341399997472763,0
275860,-0.342021465301514,0
275970,-0.34160715341568,0
276080,-0.341192841529846,0
276190,-0.341399997472763,0
276300,-0.342850118875504,0
276410,-0.34160715341568,0
276520,-0.34077849984169,0
276630,-0.340985685586929,0
276740,-0.34243580698967,0
276850,-0.34243580698967,0
276960,-0.341192841529846,0
277070,-0.342021465301514,0
277170,-0.342228621244431,0
277280,-0.342642962932587,0
277390,-0.342642962932587,0
277500,-0.342021465301514,0
277610,-0.342021465301514,0
277720,-0.342021465301514,0
277830,-0.342021465301514,0
277940,-0.341814309358597,0
278050,-0.342021465301514,0
278160,-0.34243580698967,0
278270,-0.341192841529846,0
278380,-0.340985685586929,0
278480,-0.341192841529846,0
278590,-0.34077849984169,0
278700,-0.341192841529846,0
278810,-0.340571343898773,0
278920,-0.341399997472763,0
279030,-0.34160715341568,0
279140,-0.34160715341568,0
279250,-0.341814309358597,0
279360,-0.341814309358597,0
279470,-0.342021465301514,0
279580,-0.34160715341568,0
279690,-0.341192841529846,0
279800,-0.342021465301514,0
279900,-0.34160715341568,0
280010,-0.342642962932587,0
280120,-0.342228621244431,0
280230,-0.340364187955856,0
280340,-0.341814309358597,0
280450,-0.342642962932587,0
280560,-0.34243580698967,0
280670,-0.342021465301514,0
280780,-0.342021465301514,0
280890,-0.341192841529846,0
281000,-0.340985685586929,0
281110,-0.34243580698967,0
281210,-0.341192841529846,0
281320,-0.340985685586929,0
281430,-0.34160715341568,0
281540,-0.342021465301514,0
281650,-0.342228621244431,0
281760,-0.341192841529846,0
281870,-0.340571343898773,0
281980,-0.340985685586929,0
282090,-0.34160715341568,0
282200,-0.342228621244431,0
282310,-0.34160715341568,0
282420,-0.342642962932587,0
282530,-0.341192841529846,0
282630,-0.342021465301514,0
282740,-0.341399997472763,0
282850,-0.342228621244431,0
282960,-0.342228621244431,0
283070,-0.342228621244431,0
283180,-0.341814309358597,0
283290,-0.34160715341568,0
283400,-0.342021465301514,0
283510,-0.342021465301514,0
283620,-0.340157032012939,0
283730,-0.341399997472763,0
283840,-0.34243580698967,0
283940,-0.342021465301514,0
284050,-0.340571343898773,0
284160,-0.342850118875504,0
284270,-0.341399997472763,0
284380,-0.341399997472763,0
284490,-0.341814309358597,0
284600,-0.342021465301514,0
284710,-0.34160715341568,0
284820,-0.341399997472763,0
284930,-0.34160715341568,0
285040,-0.342021465301514,0
285150,-0.34243580698967,0
285260,-0.341814309358597,0
285360,-0.341399997472763,0
285470,-0.341399997472763,0
285580,-0.342021465301514,0
285690,-0.342228621244431,0
285800,-0.342021465301514,0
285910,-0.341399997472763,0
286020,-0.34243580698967,0
286130,-0.34160715341568,0
286240,-0.34243580698967,0
286350,-0.341814309358597,0
286460,-0.342021465301514,0
286570,-0.340985685586929,0
286670,-0.34160715341568,0
286780,-0.342021465301514,0
286890,-0.342021465301514,0
287000,-0.340985685586929,0
287110,-0.34243580698967,0
287220,-0.341192841529846,0
287330,-0.342850118875504,0
287440,-0.34077849984169,0
287550,-0.341192841529846,0
287660,-0.34160715341568,0
287770,-0.34160715341568,0
287880,-0.341814309358597,0
287990,-0.341192841529846,0
288090,-0.342021465301514,0
288200,-0.342021465301514,0
288310,-0.341814309358597,0
288420,-0.34243580698967,0
288530,-0.342021465301514,0
288640,-0.342021465301514,0
288750,-0.341814309358597,0
288860,-0.340157032012939,0
288970,-0.34160715341568,0
289080,-0.342021465301514,0
289190,-0.341399997472763,0
289300,-0.342642962932587,0
289400,-0.341399997472763,0
289510,-0.34160715341568,0
289620,-0.341399997472763,0
289730,-0.340985685586929,0
289840,-0.340571343898773,0
289950,-0.341814309358597,0
290060,-0.342642962932587,0
290170,-0.34160715341568,0
290280,-0.340985685586929,0
290390,-0.34305727481842,0
290500,-0.342021465301514,0
290610,-0.342021465301514,0
290720,-0.340157032012939,0
290820,-0.341192841529846,0
290930,-0.342228621244431,0
291040,-0.34243580698967,0
291150,-0.342642962932587,0
291260,-0.34243580698967,0
291370,-0.341814309358597,0
291480,-0.342021465301514,0
291590,-0.34160715341568,0
291700,-0.341814309358597,0
291810,-0.34160715341568,0
291920,-0.34160715341568,0
292030,-0.341814309358597,0
292130,-0.342021465301514,0
292240,-0.341399997472763,0
292350,-0.341399997472763,0
292460,-0.342228621244431,0
292570,-0.341399997472763,0
292680,-0.341814309358597,0
292790,-0.34243580698967,0
292900,-0.341814309358597,0
293010,-0.341814309358597,0
293120,-0.34243580698967,0
293230,-0.341192841529846,0
293340,-0.341399997472763,0
293450,-0.342228621244431,0
293550,-0.342021465301514,0
293660,-0.342228621244431,0
293770,-0.34160715341568,0
293880,-0.342228621244431,0
293990,-0.341814309358597,0
294100,-0.340985685586929,0
294210,-0.341814309358597,0
294320,-0.340985685586929,0
294430,-0.341814309358597,0
294540,-0.341814309358597,0
294650,-0.342642962932587,0
294760,-0.342021465301514,0
294860,-0.341399997472763,0
294970,-0.34243580698967,0
295080,-0.342021465301514,0
295190,-0.34160715341568,0
295300,-0.34160715341568,0
295410,-0.34077849984169,0
295520,-0.34160715341568,0
295630,-0.34243580698967,0
295740,-0.341399997472763,0
295850,-0.34243580698967,0
295960,-0.34243580698967,0
296070,-0.34160715341568,0
296180,-0.341192841529846,0
296280,-0.342021465301514,0
296390,-0.34160715341568,0
296500,-0.34305727481842,0
296610,-0.34160715341568,0
296720,-0.342228621244431,0
296830,-0.34160715341568,0
296940,-0.341399997472763,0
297050,-0.34243580698967,0
297160,-0.341814309358597,0
297270,-0.341814309358597,0
297380,-0.342021465301514,0
297490,-0.341399997472763,0
297590,-0.341399997472763,0
297700,-0.34243580698967,0
297810,-0.341399997472763,0
297920,-0.341814309358597,0
298030,-0.341814309358597,0
298140,-0.341192841529846,0
298250,-0.34160715341568,0
298360,-0.34305727481842,0
298470,-0.341814309358597,0
298580,-0.341814309358597,0
298690,-0.341399997472763,0
298800,-0.341192841529846,0
298910,-0.341399997472763,0
299010,-0.342228621244431,0
299120,-0.34160715341568,0
299230,-0.342021465301514,0
299340,-0.34160715341568,0
299450,-0.342642962932587,0
299560,-0.342642962932587,0
299670,-0.342228621244431,0
299780,-0.342228621244431,0
299890,-0.341814309358597,0
300000,-0.341399997472763,0
300110,-0.340571343898773,0
300220,-0.342642962932587,0
300320,-0.342021465301514,0
300430,-0.342228621244431,0
300540,-0.341192841529846,0
300650,-0.341192841529846,0
300760,-0.342021465301514,0
300870,-0.34160715341568,0
300980,-0.34077849984169,0
301090,-0.342228621244431,0
301200,-0.341399997472763,0
301310,-0.34160715341568,0
301420,-0.34305727481842,0
301530,-0.341814309358597,0
301640,-0.342850118875504,0
301740,-0.341814309358597,0
301850,-0.342021465301514,0
301960,-0.34243580698967,0
302070,-0.341814309358597,0
302180,-0.34077849984169,0
302290,-0.342228621244431,0
302400,-0.34077849984169,0
302510,-0.342021465301514,0
302620,-0.341192841529846,0
302730,-0.342850118875504,0
302840,-0.342021465301514,0
302950,-0.341814309358597,0
303050,-0.341814309358597,0
303160,-0.341814309358597,0
303270,-0.341399997472763,0
303380,-0.342021465301514,0
303490,-0.34243580698967,0
303600,-0.341192841529846,0
303710,-0.341399997472763,0
303820,-0.34160715341568,0
303930,-0.341814309358597,0
304040,-0.342228621244431,0
304150,-0.342228621244431,0
304260,-0.34160715341568,0
304370,-0.341399997472763,0
304470,-0.34160715341568,0
304580,-0.341399997472763,0
304690,-0.34160715341568,0
304800,-0.341192841529846,0
304910,-0.341814309358597,0
305020,-0.34243580698967,0
305130,-0.341192841529846,0
305240,-0.34160715341568,0
305350,-0.341814309358597,0
305460,-0.341192841529846,0
305570,-0.342021465301514,0
305680,-0.341192841529846,0
305780,-0.341399997472763,0
305890,-0.342228621244431,0
306000,-0.342021465301514,0
306110,-0.342850118875504,0
306220,-0.341192841529846,0
306330,-0.342021465301514,0
306440,-0.341399997472763,0
306550,-0.341814309358597,0
306660,-0.342228621244431,0
306770,-0.34160715341568,0
306880,-0.34160715341568,0
306990,-0.341814309358597,0
307100,-0.34243580698967,0
307200,-0.340985685586929,0
307310,-0.340364187955856,0
307420,-0.34160715341568,0
307530,-0.342642962932587,0
307640,-0.342021465301514,0
307750,-0.340157032012939,0
307860,-0.34160715341568,0
307970,-0.342228621244431,0
308080,-0.342021465301514,0
308190,-0.34160715341568,0
308300,-0.340985685586929,0
308410,-0.342228621244431,0
308510,-0.342228621244431,0
308620,-0.341192841529846,0
308730,-0.34305727481842,0
308840,-0.342642962932587,0
308950,-0.341399997472763,0
309060,-0.340985685586929,0
309170,-0.341399997472763,0
309280,-0.342642962932587,0
309390,-0.341399997472763,0
309500,-0.342021465301514,0
309610,-0.34243580698967,0
309720,-0.34160715341568,0
309830,-0.34243580698967,0
309930,-0.341814309358597,0
310040,-0.341192841529846,0
310150,-0.342642962932587,0
310260,-0.34160715341568,0
310370,-0.341814309358597,0
310480,-0.341399997472763,0
310590,-0.342850118875504,0
310700,-0.341399997472763,0
310810,-0.34160715341568,0
310920,-0.34160715341568,0
311030,-0.342021465301514,0
311140,-0.342850118875504,0
311240,-0.342228621244431,0
311350,-0.341399997472763,0
311460,-0.341814309358597,0
311570,-0.341399997472763,0
311680,-0.341399997472763,0
311790,-0.342021465301514,0
311900,-0.34243580698967,0
312010,-0.342021465301514,0
312120,-0.34160715341568,0
312230,-0.341814309358597,0
312340,-0.342850118875504,0
312450,-0.340985685586929,0
312560,-0.341399997472763,0
312660,-0.340985685586929,0
312770,-0.341814309358597,0
312880,-0.34160715341568,0
312990,-0.342850118875504,0
313100,-0.342021465301514,0
313210,-0.342228621244431,0
313320,-0.340157032012939,0
313430,-0.34077849984169,0
313540,-0.341814309358597,0
313650,-0.341192841529846,0
313760,-0.341814309358597,0
313870,-0.340571343898773,0
313980,-0.341814309358597,0
314080,-0.342021465301514,0
314190,-0.341192841529846,0
314300,-0.34243580698967,0
314410,-0.342021465301514,0
314520,-0.34077849984169,0
314630,-0.340571343898773,0
314740,-0.341814309358597,0
314850,-0.343264430761337,0
314960,-0.342642962932587,0
315070,-0.341814309358597,0
315180,-0.342021465301514,0
315290,-0.340985685586929,0
315390,-0.341399997472763,0
315500,-0.34160715341568,0
315610,-0.34243580698967,0
315720,-0.342021465301514,0
315830,-0.34160715341568,0
315940,-0.342021465301514,0
316050,-0.342021465301514,0
316160,-0.342642962932587,0
316270,-0.341814309358597,0
316380,-0.342021465301514,0
316490,-0.342021465301514,0
316600,-0.34077849984169,0
316710,-0.34160715341568,0
316810,-0.341192841529846,0
316920,-0.34160715341568,0
317030,-0.34160715341568,0
317140,-0.34160715341568,0
317250,-0.341399997472763,0
317360,-0.342021465301514,0
317470,-0.340985685586929,0
317580,-0.34160715341568,0
317690,-0.34305727481842,0
317800,-0.342228621244431,0
317910,-0.341399997472763,0
318020,-0.341399997472763,0
318120,-0.341814309358597,0
318230,-0.341814309358597,0
318340,-0.341814309358597,0
318450,-0.342021465301514,0
318560,-0.34243580698967,0
318670,-0.341399997472763,0
318780,-0.341814309358597,0
318890,-0.342850118875504,0
319000,-0.341814309358597,0
319110,-0.34160715341568,0
319220,-0.341192841529846,0
319330,-0.341192841529846,0
319440,-0.341399997472763,0
319540,-0.341814309358597,0
319650,-0.342021465301514,0
319760,-0.341399997472763,0
319870,-0.342228621244431,0
319980,-0.341192841529846,0
320090,-0.340364187955856,0
320200,-0.342850118875504,0
320310,-0.342642962932587,0
320420,-0.341192841529846,0
320530,-0.341814309358597,0
320640,-0.341192841529846,0
320750,-0.342228621244431,0
320850,-0.342021465301514,0
320960,-0.342021465301514,0
321070,-0.341399997472763,0
321180,-0.342228621244431,0
321290,-0.341192841529846,0
321400,-0.342228621244431,0
321510,-0.34160715341568,0
321620,-0.34077849984169,0
321730,-0.342642962932587,0
321840,-0.34160715341568,0
321950,-0.342228621244431,0
322060,-0.34160715341568,0
322170,-0.341192841529846,0
322270,-0.341399997472763,0
322380,-0.341399997472763,0
322490,-0.342228621244431,0
322600,-0.341814309358597,0
322710,-0.34160715341568,0
322820,-0.34243580698967,0
322930,-0.342850118875504,0
323040,-0.341399997472763,0
323150,-0.340571343898773,0
323260,-0.340571343898773,0
323370,-0.341399997472763,0
323480,-0.34077849984169,0
323580,-0.341399997472763,0
323690,-0.342228621244431,0
323800,-0.34077849984169,0
323910,-0.341399997472763,0
324020,-0.34243580698967,0
324130,-0.34160715341568,0
324240,-0.341814309358597,0
324350,-0.34160715341568,0
324460,-0.342642962932587,0
324570,-0.34243580698967,0
324680,-0.34077849984169,0
324790,-0.34243580698967,0
324900,-0.341399997472763,0
325000,-0.341814309358597,0
325110,-0.341192841529846,0
325220,-0.342021465301514,0
325330,-0.342642962932587,0
325440,-0.34077849984169,0
325550,-0.342021465301514,0
325660,-0.342642962932587,0
325770,-0.342021465301514,0
325880,-0.342850118875504,0
325990,-0.342021465301514,0
326100,-0.341814309358597,0
326210,-0.34243580698967,0
326310,-0.341814309358597,0
326420,-0.342021465301514,0
326530,-0.34243580698967,0
326640,-0.342228621244431,0
326750,-0.340571343898773,0
326860,-0.34160715341568,0
326970,-0.341192841529846,0
327080,-0.342642962932587,0
327190,-0.342642962932587,0
327300,-0.341192841529846,0
327410,-0.34243580698967,0
327520,-0.34160715341568,0
327630,-0.34243580698967,0
327730,-0.341814309358597,0
327840,-0.341814309358597,0
327950,-0.342228621244431,0
328060,-0.341814309358597,0
328170,-0.34305727481842,0
328280,-0.341192841529846,0
328390,-0.340985685586929,0
328500,-0.342228621244431,0
328610,-0.342021465301514,0
328720,-0.341814309358597,0
328830,-0.341399997472763,0
328940,-0.34160715341568,0
329040,-0.340985685586929,0
329150,-0.34160715341568,0
329260,-0.342228621244431,0
329370,-0.34160715341568,0
329480,-0.341399997472763,0
329590,-0.340985685586929,0
329700,-0.342850118875504,0
329810,-0.34160715341568,0
329920,-0.341399997472763,0
330030,-0.341399997472763,0
330140,-0.341814309358597,0
330250,-0.342228621244431,0
330360,-0.342228621244431,0
330460,-0.342642962932587,0
330570,-0.34160715341568,0
330680,-0.34160715341568,0
330790,-0.34160715341568,0
330900,-0.341814309358597,0
331010,-0.34160715341568,0
331120,-0.342850118875504,0
331230,-0.34243580698967,0
331340,-0.34077849984169,0
331450,-0.340985685586929,0
331560,-0.341192841529846,0
331670,-0.340985685586929,0
331770,-0.341192841529846,0
331880,-0.342021465301514,0
331990,-0.342021465301514,0
332100,-0.34160715341568,0
332210,-0.342021465301514,0
332320,-0.340571343898773,0
332430,-0.34160715341568,0
332540,-0.34077849984169,0
332650,-0.342021465301514,0
332760,-0.341399997472763,0
332870,-0.34160715341568,0
332980,-0.340985685586929,0
333090,-0.34243580698967,0
333190,-0.340571343898773,0
333300,-0.342021465301514,0
333410,-0.341192841529846,0
333520,-0.34077849984169,0
333630,-0.340985685586929,0
333740,-0.342228621244431,0
333850,-0.341814309358597,0
333960,-0.342021465301514,0
334070,-0.342850118875504,0
334180,-0.34243580698967,0
334290,-0.34160715341568,0
334400,-0.341192841529846,0
334500,-0.341192841529846,0
334610,-0.340571343898773,0
334720,-0.342228621244431,0
334830,-0.342228621244431,0
334940,-0.342021465301514,0
335050,-0.342228621244431,0
335160,-0.342021465301514,0
335270,-0.341399997472763,0
335380,-0.340571343898773,0
335490,-0.34243580698967,0
335600,-0.34243580698967,0
335710,-0.342021465301514,0
335820,-0.342021465301514,0
335920,-0.342850118875504,0
336030,-0.341814309358597,0
336140,-0.341399997472763,0
336250,-0.342642962932587,0
336360,-0.342228621244431,0
336470,-0.341814309358597,0
336580,-0.34243580698967,0
336690,-0.342850118875504,0
336800,-0.342021465301514,0
336910,-0.342228621244431,0
337020,-0.34160715341568,0
337130,-0.342228621244431,0
337230,-0.34160715341568,0
337340,-0.34160715341568,0
337450,-0.340364187955856,0
337560,-0.342228621244431,0
337670,-0.342228621244431,0
337780,-0.342021465301514,0
337890,-0.342228621244431,0
338000,-0.342021465301514,0
338110,-0.341814309358597,0
338220,-0.34160715341568,0
338330,-0.341399997472763,0
338440,-0.341399997472763,0
338550,-0.34243580698967,0
338650,-0.341192841529846,0
338760,-0.342228621244431,0
338870,-0.34243580698967,0
338980,-0.341192841529846,0
339090,-0.342021465301514,0
339200,-0.342642962932587,0
339310,-0.341192841529846,0
339420,-0.342021465301514,0
339530,-0.342228621244431,0
339640,-0.342228621244431,0
339750,-0.34160715341568,0
339860,-0.341814309358597,0
339960,-0.341192841529846,0
340070,-0.342228621244431,0
340180,-0.341814309358597,0
340290,-0.34243580698967,0
340400,-0.340985685586929,0
340510,-0.342228621244431,0
340620,-0.342850118875504,0
340730,-0.34160715341568,0
340840,-0.342021465301514,0
340950,-0.34243580698967,0
341060,-0.340985685586929,0
341170,-0.34243580698967,0
341280,-0.34160715341568,0
341380,-0.342642962932587,0
341490,-0.342021465301514,0
341600,-0.341192841529846,0
341710,-0.342021465301514,0
341820,-0.342642962932587,0
341930,-0.342021465301514,0
342040,-0.342021465301514,0
342150,-0.341192841529846,0
342260,-0.341192841529846,0
342370,-0.342021465301514,0
342480,-0.34243580698967,0
342590,-0.341814309358597,0
342690,-0.340985685586929,0
342800,-0.343264430761337,0
342910,-0.34160715341568,0
343020,-0.341399997472763,0
343130,-0.342850118875504,0
343240,-0.341814309358597,0
343350,-0.341814309358597,0
343460,-0.343264430761337,0
343570,-0.342228621244431,0
343680,-0.340985685586929,0
343790,-0.341399997472763,0
343900,-0.342021465301514,0
344010,-0.342021465301514,0
344110,-0.341192841529846,0
344220,-0.341399997472763,0
344330,-0.340157032012939,0
344440,-0.34243580698967,0
344550,-0.342021465301514,0
344660,-0.341814309358597,0
344770,-0.34243580698967,0
344880,-0.341399997472763,0
344990,-0.342850118875504,0
345100,-0.342021465301514,0
345210,-0.34077849984169,0
345320,-0.341399997472763,0
345420,-0.342228621244431,0
345530,-0.341814309358597,0
345640,-0.34077849984169,0
345750,-0.342021465301514,0
345860,-0.342850118875504,0
345970,-0.340364187955856,0
346080,-0.341814309358597,0
346190,-0.341192841529846,0
346300,-0.342228621244431,0
346410,-0.342021465301514,0
346520,-0.341399997472763,0
346630,-0.343264430761337,0
346740,-0.341814309358597,0
346840,-0.340985685586929,0
346950,-0.341814309358597,0
347060,-0.342021465301514,0
347170,-0.342642962932587,0
347280,-0.34160715341568,0
347390,-0.342021465301514,0
347500,-0.340364187955856,0
347610,-0.342850118875504,0
347720,-0.341192841529846,0
347830,-0.34243580698967,0
347940,-0.342642962932587,0
348050,-0.341399997472763,0
348150,-0.340157032012939,0
348260,-0.340985685586929,0
348370,-0.34160715341568,0
348480,-0.34160715341568,0
348590,-0.34160715341568,0
348700,-0.34160715341568,0
348810,-0.342228621244431,0
348920,-0.34305727481842,0
349030,-0.341814309358597,0
349140,-0.342021465301514,0
349250,-0.342021465301514,0
349360,-0.341814309358597,0
349470,-0.341814309358597,0
349570,-0.342021465301514,0
349680,-0.341192841529846,0
349790,-0.341192841529846,0
349900,-0.342228621244431,0
350010,-0.342021465301514,0
350120,-0.341399997472763,0
350230,-0.34160715341568,0
350340,-0.341192841529846,0
350450,-0.34077849984169,0
350560,-0.342021465301514,0
350670,-0.342228621244431,0
350780,-0.343471586704254,0
350880,-0.340364187955856,0
350990,-0.34305727481842,0
351100,-0.342850118875504,0
351210,-0.342021465301514,0
351320,-0.342228621244431,0
351430,-0.342021465301514,0
351540,-0.342021465301514,0
351650,-0.341192841529846,0
351760,-0.34243580698967,0
351870,-0.341399997472763,0
351980,-0.342642962932587,0
352090,-0.34243580698967,0
352200,-0.34160715341568,0
352300,-0.342228621244431,0
352410,-0.342228621244431,0
352520,-0.341192841529846,0
352630,-0.34243580698967,0
352740,-0.342228621244431,0
352850,-0.342228621244431,0
352960,-0.342021465301514,0
353070,-0.34243580698967,0
353180,-0.34243580698967,0
353290,-0.341192841529846,0
353400,-0.342021465301514,0
353510,-0.342021465301514,0
353610,-0.341192841529846,0
353720,-0.340157032012939,0
353830,-0.342021465301514,0
353940,-0.34160715341568,0
354050,-0.342642962932587,0
354160,-0.341814309358597,0
354270,-0.341399997472763,0
354380,-0.340985685586929,0
354490,-0.340571343898773,0
354600,-0.340985685586929,0
354710,-0.341192841529846,0
354820,-0.341814309358597,0
354930,-0.341814309358597,0
355030,-0.34077849984169,0
355140,-0.34077849984169,0
355250,-0.34243580698967,0
355360,-0.341192841529846,0
355470,-0.341814309358597,0
355580,-0.341399997472763,0
355690,-0.342021465301514,0
355800,-0.341399997472763,0
355910,-0.341192841529846,0
356020,-0.341399997472763,0
356130,-0.341814309358597,0
356240,-0.34243580698967,0
356340,-0.341814309358597,0
356450,-0.341192841529846,0
356560,-0.34160715341568,0
356670,-0.341192841529846,0
356780,-0.342850118875504,0
356890,-0.341399997472763,0
357000,-0.34243580698967,0
357110,-0.342021465301514,0
357220,-0.342021465301514,0
357330,-0.341814309358597,0
357440,-0.341399997472763,0
357550,-0.340985685586929,0
357660,-0.342228621244431,0
357760,-0.342021465301514,0
357870,-0.34160715341568,0
357980,-0.34305727481842,0
358090,-0.341192841529846,0
358200,-0.341399997472763,0
358310,-0.341814309358597,0
358420,-0.34160715341568,0
358530,-0.342850118875504,0
358640,-0.341814309358597,0
358750,-0.342850118875504,0
358860,-0.34160715341568,0
358970,-0.340571343898773,0
359070,-0.340571343898773,0
359180,-0.34243580698967,0
359290,-0.341192841529846,0
359400,-0.342642962932587,0
359510,-0.34160715341568,0
359620,-0.342021465301514,0
359730,-0.341192841529846,0
359840,-0.341399997472763,0
359950,-0.34160715341568,0
360060,-0.340985685586929,0
360170,-0.34243580698967,0
360280,-0.341399997472763,0
360390,-0.342228621244431,0
360490,-0.342021465301514,0
360600,-0.341399997472763,0
360710,-0.34160715341568,0
360820,-0.342021465301514,0
360930,-0.342228621244431,0
361040,-0.341814309358597,0
361150,-0.341399997472763,0
361260,-0.342021465301514,0
361370,-0.341399997472763,0
361480,-0.341399997472763,0
361590,-0.340985685586929,0
361700,-0.342850118875504,0
361800,-0.341814309358597,0
361910,-0.343678742647171,0
362020,-0.341399997472763,0
362130,-0.341192841529846,0
362240,-0.342642962932587,0
362350,-0.341814309358597,0
362460,-0.34160715341568,0
362570,-0.342850118875504,0
362680,-0.342642962932587,0
362790,-0.341814309358597,0
362900,-0.342228621244431,0
363010,-0.342021465301514,0
363120,-0.342850118875504,0
363220,-0.342021465301514,0
363330,-0.341399997472763,0
363440,-0.342850118875504,0
363550,-0.342228621244431,0
363660,-0.340985685586929,0
363770,-0.341192841529846,0
363880,-0.341192841529846,0
363990,-0.341814309358597,0
364100,-0.34160715341568,0
364210,-0.341399997472763,0
364320,-0.342021465301514,0
364430,-0.34305727481842,0
364530,-0.342850118875504,0
364640,-0.34243580698967,0
364750,-0.341814309358597,0
364860,-0.341399997472763,0
364970,-0.341399997472763,0
365080,-0.342021465301514,0
365190,-0.34077849984169,0
365300,-0.340985685586929,0
365410,-0.34243580698967,0
365520,-0.339742720127106,0
365630,-0.341399997472763,0
365740,-0.34160715341568,0
365850,-0.342021465301514,0
365950,-0.34160715341568,0
366060,-0.343471586704254,0
366170,-0.341192841529846,0
366280,-0.342228621244431,0
366390,-0.34160715341568,0
366500,-0.341814309358597,0
366610,-0.341814309358597,0
366720,-0.341814309358597,0
366830,-0.340985685586929,0
366940,-0.341814309358597,0
367050,-0.34160715341568,0
367160,-0.341192841529846,0
367260,-0.342021465301514,0
367370,-0.34160715341568,0
367480,-0.342850118875504,0
367590,-0.342021465301514,0
367700,-0.341814309358597,0
367810,-0.342642962932587,0
367920,-0.342021465301514,0
368030,-0.342228621244431,0
368140,-0.341192841529846,0
368250,-0.341814309358597,0
368360,-0.34160715341568,0
368470,-0.342021465301514,0
368580,-0.341192841529846,0
368680,-0.341399997472763,0
368790,-0.342021465301514,0
368900,-0.342228621244431,0
369010,-0.34243580698967,0
369120,-0.342021465301514,0
369230,-0.341814309358597,0
369340,-0.341399997472763,0
369450,-0.342021465301514,0
369560,-0.34243580698967,0
369670,-0.341192841529846,0
369780,-0.34243580698967,0
369890,-0.34243580698967,0
369990,-0.34243580698967,0
370100,-0.341399997472763,0
370210,-0.341814309358597,0
370320,-0.34243580698967,0
370430,-0.34243580698967,0
370540,-0.341814309358597,0
370650,-0.34243580698967,0
370760,-0.342021465301514,0
370870,-0.34243580698967,0
370980,-0.340157032012939,0
371090,-0.341399997472763,0
371200,-0.342228621244431,0
371310,-0.341192841529846,0
371410,-0.341814309358597,0
371520,-0.34243580698967,0
371630,-0.341192841529846,0
371740,-0.342021465301514,0
371850,-0.34305727481842,0
371960,-0.340985685586929,0
372070,-0.34160715341568,0
372180,-0.34243580698967,0
372290,-0.342228621244431,0
372400,-0.34077849984169,0
372510,-0.340985685586929,0
372620,-0.342021465301514,0
372720,-0.34243580698967,0
372830,-0.342228621244431,0
372940,-0.34243580698967,0
373050,-0.341399997472763,0
373160,-0.34160715341568,0
373270,-0.342021465301514,0
373380,-0.341814309358597,0
373490,-0.341814309358597,0
373600,-0.341814309358597,0
373710,-0.342642962932587,0
373820,-0.341399997472763,0
373930,-0.342021465301514,0
374040,-0.342850118875504,0
374140,-0.341399997472763,0
374250,-0.340985685586929,0
374360,-0.342021465301514,0
374470,-0.340157032012939,0
374580,-0.34160715341568,0
374690,-0.341399997472763,0
374800,-0.340364187955856,0
374910,-0.341814309358597,0
375020,-0.34160715341568,0
375130,-0.341192841529846,0
375240,-0.342228621244431,0
375350,-0.342228621244431,0
375450,-0.34160715341568,0
375560,-0.341814309358597,0
375670,-0.342642962932587,0
375780,-0.341814309358597,0
375890,-0.341814309358597,0
376000,-0.341192841529846,0
376110,-0.341814309358597,0
376220,-0.342228621244431,0
376330,-0.342021465301514,0
376440,-0.34243580698967,0
376550,-0.342228621244431,0
376660,-0.341192841529846,0
376770,-0.341192841529846,0
376870,-0.341814309358597,0
376980,-0.342228621244431,0
377090,-0.341814309358597,0
377200,-0.342642962932587,0
377310,-0.342021465301514,0
377420,-0.34160715341568,0
377530,-0.341399997472763,0
377640,-0.341399997472763,0
377750,-0.342228621244431,0
377860,-0.340571343898773,0
377970,-0.341192841529846,0
378080,-0.342228621244431,0
378180,-0.340985685586929,0
378290,-0.34243580698967,0
378400,-0.341399997472763,0
378510,-0.341399997472763,0
378620,-0.342642962932587,0
378730,-0.342228621244431,0
378840,-0.341399997472763,0
378950,-0.340364187955856,0
379060,-0.341399997472763,0
379170,-0.342021465301514,0
379280,-0.342228621244431,0
379390,-0.34243580698967,0
379500,-0.341192841529846,0
379600,-0.342021465301514,0
379710,-0.342228621244431,0
379820,-0.341814309358597,0
379930,-0.34243580698967,0
380040,-0.342850118875504,0
380150,-0.342021465301514,0
380260,-0.34077849984169,0
380370,-0.342850118875504,0
380480,-0.342021465301514,0
380590,-0.34243580698967,0
380700,-0.341814309358597,0
380810,-0.342850118875504,0
380910,-0.342642962932587,0
381020,-0.34243580698967,0
381130,-0.34160715341568,0
381240,-0.342228621244431,0
381350,-0.34243580698967,0
381460,-0.341399997472763,0
381570,-0.34243580698967,0
381680,-0.34243580698967,0
381790,-0.342850118875504,0
381900,-0.340985685586929,0
382010,-0.34243580698967,0
382120,-0.341399997472763,0
382230,-0.341814309358597,0
382330,-0.34305727481842,0
382440,-0.340985685586929,0
382550,-0.34160715341568,0
382660,-0.34160715341568,0
382770,-0.341814309358597,0
382880,-0.342021465301514,0
382990,-0.34243580698967,0
383100,-0.342642962932587,0
383210,-0.342850118875504,0
383320,-0.341192841529846,0
383430,-0.34243580698967,0
383540,-0.341399997472763,0
383640,-0.341814309358597,0
383750,-0.341399997472763,0
383860,-0.341814309358597,0
383970,-0.341192841529846,0
384080,-0.34160715341568,0
384190,-0.34243580698967,0
384300,-0.342021465301514,0
384410,-0.342021465301514,0
384520,-0.34243580698967,0
384630,-0.340157032012939,0
384740,-0.342642962932587,0
384850,-0.342021465301514,0
384960,-0.34077849984169,0
385060,-0.340985685586929,0
385170,-0.341399997472763,0
385280,-0.341192841529846,0
385390,-0.34243580698967,0
385500,-0.340985685586929,0
385610,-0.341192841529846,0
385720,-0.34160715341568,0
385830,-0.34243580698967,0
385940,-0.34160715341568,0
386050,-0.343471586704254,0
386160,-0.342021465301514,0
386270,-0.342021465301514,0
386370,-0.341814309358597,0
386480,-0.342021465301514,0
386590,-0.341192841529846,0
386700,-0.341814309358597,0
386810,-0.341192841529846,0
386920,-0.341814309358597,0
387030,-0.342850118875504,0
387140,-0.34243580698967,0
387250,-0.342228621244431,0
387360,-0.34243580698967,0
387470,-0.342642962932587,0
387580,-0.341814309358597,0
387690,-0.342642962932587,0
387790,-0.34160715341568,0
387900,-0.341399997472763,0
388010,-0.341192841529846,0
388120,-0.341814309358597,0
388230,-0.342850118875504,0
388340,-0.34243580698967,0
388450,-0.341814309358597,0
388560,-0.34243580698967,0
388670,-0.341814309358597,0
388780,-0.342228621244431,0
388890,-0.342228621244431,0
389000,-0.34077849984169,0
389100,-0.34160715341568,0
389210,-0.342021465301514,0
389320,-0.341192841529846,0
389430,-0.342021465301514,0
389540,-0.341192841529846,0
389650,-0.341192841529846,0
389760,-0.342228621244431,0
389870,-0.341814309358597,0
389980,-0.34160715341568,0
390090,-0.340571343898773,0
390200,-0.341399997472763,0
390310,-0.342228621244431,0
390420,-0.341399997472763,0
390520,-0.342228621244431,0
390630,-0.342021465301514,0
390740,-0.341399997472763,0
390850,-0.34243580698967,0
390960,-0.342021465301514,0
391070,-0.341814309358597,0
391180,-0.340985685586929,0
391290,-0.341399997472763,0
391400,-0.34243580698967,0
391510,-0.342642962932587,0
391620,-0.341399997472763,0
391730,-0.342021465301514,0
391830,-0.34243580698967,0
391940,-0.342642962932587,0
392050,-0.342021465301514,0
392160,-0.340985685586929,0
392270,-0.342850118875504,0
392380,-0.340985685586929,0
392490,-0.34243580698967,0
392600,-0.341814309358597,0
392710,-0.341192841529846,0
392820,-0.342021465301514,0
392930,-0.342228621244431,0
393040,-0.341399997472763,0
393150,-0.341399997472763,0
393250,-0.340985685586929,0
393360,-0.342228621244431,0
393470,-0.34243580698967,0
393580,-0.34243580698967,0
393690,-0.34160715341568,0
393800,-0.342228621244431,0
393910,-0.342642962932587,0
394020,-0.34077849984169,0
394130,-0.340985685586929,0
394240,-0.342021465301514,0
394350,-0.341399997472763,0
394460,-0.342228621244431,0
394570,-0.34160715341568,0
394670,-0.342228621244431,0
394780,-0.341399997472763,0
394890,-0.342228621244431,0
395000,-0.341814309358597,0
395110,-0.341814309358597,0
395220,-0.341814309358597,0
395330,-0.342642962932587,0
395440,-0.342021465301514,0
395550,-0.34243580698967,0
395660,-0.342642962932587,0
395770,-0.342021465301514,0
395880,-0.341814309358597,0
395980,-0.341814309358597,0
396090,-0.342228621244431,0
396200,-0.341814309358597,0
396310,-0.341399997472763,0
396420,-0.342021465301514,0
396530,-0.34077849984169,0
396640,-0.34160715341568,0
396750,-0.34160715341568,0
396860,-0.341399997472763,0
396970,-0.342021465301514,0
397080,-0.342850118875504,0
397190,-0.342021465301514,0
397300,-0.341399997472763,0
397400,-0.342021465301514,0
397510,-0.341814309358597,0
397620,-0.342642962932587,0
397730,-0.341399997472763,0
397840,-0.342850118875504,0
397950,-0.341399997472763,0
398060,-0.341192841529846,0
398170,-0.34160715341568,0
398280,-0.34160715341568,0
398390,-0.342642962932587,0
398500,-0.34160715341568,0
398610,-0.341399997472763,0
398710,-0.340985685586929,0
398820,-0.342021465301514,0
398930,-0.34243580698967,0
399040,-0.341814309358597,0
399150,-0.341192841529846,0
399260,-0.341192841529846,0
399370,-0.34243580698967,0
399480,-0.341399997472763,0
399590,-0.341814309358597,0
399700,-0.342228621244431,0
399810,-0.342021465301514,0
399920,-0.34160715341568,0
400030,-0.342021465301514,0
400130,-0.341814309358597,0
400240,-0.34160715341568,0
400350,-0.34160715341568,0
400460,-0.343264430761337,0
400570,-0.342228621244431,0
400680,-0.34243580698967,0
400790,-0.34160715341568,0
400900,-0.342021465301514,0
401010,-0.341399997472763,0
401120,-0.341814309358597,0
401230,-0.341399997472763,0
401340,-0.342228621244431,0
401440,-0.342021465301514,0
401550,-0.34160715341568,0
401660,-0.339949876070023,0
401770,-0.341814309358597,0
401880,-0.34160715341568,0
401990,-0.341814309358597,0
402100,-0.342850118875504,0
402210,-0.341192841529846,0
402320,-0.342850118875504,0
402430,-0.341399997472763,0
402540,-0.340985685586929,0
402650,-0.342642962932587,0
402760,-0.34077849984169,0
402860,-0.34160715341568,0
402970,-0.34160715341568,0
403080,-0.341192841529846,0
403190,-0.34160715341568,0
403300,-0.343264430761337,0
403410,-0.34305727481842,0
403520,-0.34160715341568,0
403630,-0.34160715341568,0
403740,-0.342228621244431,0
403850,-0.342228621244431,0
403960,-0.342228621244431,0
404070,-0.342021465301514,0
404170,-0.340985685586929,0
404280,-0.34243580698967,0
404390,-0.341192841529846,0
404500,-0.340985685586929,0
404610,-0.342642962932587,0
404720,-0.34160715341568,0
404830,-0.340985685586929,0
404940,-0.342021465301514,0
405050,-0.34160715341568,0
405160,-0.340985685586929,0
405270,-0.34243580698967,0
405380,-0.341399997472763,0
405490,-0.342021465301514,0
405590,-0.341814309358597,0
405700,-0.343471586704254,0
405810,-0.342642962932587,0
405920,-0.342228621244431,0
406030,-0.34243580698967,0
406140,-0.342850118875504,0
406250,-0.34160715341568,0
406360,-0.341399997472763,0
406470,-0.342850118875504,0
406580,-0.341814309358597,0
406690,-0.342021465301514,0
406800,-0.342021465301514,0
406900,-0.341814309358597,0
407010,-0.342021465301514,0
407120,-0.342642962932587,0
407230,-0.341814309358597,0
407340,-0.342021465301514,0
407450,-0.341192841529846,0
407560,-0.341399997472763,0
407670,-0.342642962932587,0
407780,-0.341192841529846,0
407890,-0.34160715341568,0
408000,-0.34160715341568,0
408110,-0.342021465301514,0
408220,-0.341814309358597,0
408320,-0.342850118875504,0
408430,-0.342021465301514,0
408540,-0.34243580698967,0
408650,-0.342228621244431,0
408760,-0.341399997472763,0
408870,-0.34243580698967,0
408980,-0.341399997472763,0
409090,-0.34160715341568,0
409200,-0.341814309358597,0
409310,-0.341814309358597,0
409420,-0.34243580698967,0
409530,-0.341192841529846,0
409630,-0.341814309358597,0
409740,-0.342021465301514,0
409850,-0.341399997472763,0
409960,-0.34160715341568,0
410070,-0.34160715341568,0
410180,-0.34160715341568,0
410290,-0.34160715341568,0
410400,-0.34243580698967,0
410510,-0.34077849984169,0
410620,-0.34243580698967,0
410730,-0.34077849984169,0
410840,-0.341814309358597,0
410950,-0.342228621244431,0
411050,-0.341192841529846,0
411160,-0.34160715341568,0
411270,-0.341399997472763,0
411380,-0.341399997472763,0
411490,-0.342642962932587,0
411600,-0.342021465301514,0
411710,-0.341814309358597,0
411820,-0.341399997472763,0
411930,-0.341192841529846,0
412040,-0.342850118875504,0
412150,-0.341814309358597,0
412260,-0.342021465301514,0
412360,-0.342228621244431,0
412470,-0.341814309358597,0
412580,-0.341192841529846,0
412690,-0.341192841529846,0
412800,-0.341399997472763,0
412910,-0.342642962932587,0
413020,-0.34160715341568,0
413130,-0.342850118875504,0
413240,-0.342021465301514,0
413350,-0.34243580698967,0
413460,-0.341814309358597,0
413570,-0.341399997472763,0
413680,-0.341192841529846,0
413780,-0.34160715341568,0
413890,-0.34160715341568,0
414000,-0.341192841529846,0
414110,-0.34243580698967,0
414220,-0.342021465301514,0
414330,-0.342850118875504,0
414440,-0.34077849984169,0
414550,-0.341399997472763,0
414660,-0.342021465301514,0
414770,-0.342642962932587,0
414880,-0.342850118875504,0
414990,-0.342228621244431,0
415090,-0.342228621244431,0
415200,-0.341192841529846,0
415310,-0.342642962932587,0
415420,-0.342642962932587,0
415530,-0.34160715341568,0
415640,-0.340985685586929,0
415750,-0.341814309358597,0
415860,-0.34160715341568,0
415970,-0.34160715341568,0
416080,-0.342228621244431,0
416190,-0.34243580698967,0
416300,-0.34243580698967,0
416410,-0.340985685586929,0
416510,-0.343471586704254,0
416620,-0.34243580698967,0
416730,-0.340985685586929,0
416840,-0.34243580698967,0
416950,-0.342228621244431,0
417060,-0.34160715341568,0
417170,-0.341814309358597,0
417280,-0.34160715341568,0
417390,-0.341192841529846,0
417500,-0.34305727481842,0
417610,-0.342850118875504,0
417720,-0.34160715341568,0
417820,-0.34243580698967,0
417930,-0.342642962932587,0
418040,-0.341814309358597,0
418150,-0.339742720127106,0
418260,-0.342850118875504,0
418370,-0.337256789207459,0
418480,-0.333942234516144,0
418590,-0.33187061548233,0
418700,-0.338085442781448,0
418810,-0.337463945150375,0
418920,-0.338706910610199,0
419030,-0.341814309358597,0
419140,-0.341192841529846,0
419240,-0.339742720127106,0
419350,-0.34160715341568,0
419460,-0.340571343898773,0
419570,-0.341192841529846,0
419680,-0.34160715341568,0
419790,-0.34243580698967,0
419900,-0.34243580698967,0
420010,-0.341399997472763,0
420120,-0.341399997472763,0
420230,-0.342228621244431,0
420340,-0.342021465301514,0
420450,-0.342642962932587,0
420550,-0.34160715341568,0
420660,-0.342642962932587,0
420770,-0.342228621244431,0
420880,-0.341399997472763,0
420990,-0.342642962932587,0
421100,-0.341192841529846,0
421210,-0.342021465301514,0
421320,-0.34243580698967,0
421430,-0.340985685586929,0
421540,-0.342850118875504,0
421650,-0.34077849984169,0
421760,-0.34243580698967,0
421870,-0.340985685586929,0
421970,-0.341192841529846,0
422080,-0.342850118875504,0
422190,-0.342228621244431,0
422300,-0.34160715341568,0
422410,-0.34160715341568,0
422520,-0.34243580698967,0
422630,-0.341814309358597,0
422740,-0.34160715341568,0
422850,-0.343264430761337,0
422960,-0.342228621244431,0
423070,-0.341814309358597,0
423180,-0.341399997472763,0
423280,-0.341399997472763,0
423390,-0.34160715341568,0
423500,-0.340985685586929,0
423610,-0.342021465301514,0
423720,-0.341814309358597,0
423830,-0.34243580698967,0
423940,-0.341399997472763,0
424050,-0.34077849984169,0
424160,-0.341814309358597,0
424270,-0.341192841529846,0
424380,-0.341814309358597,0
424490,-0.341814309358597,0
424600,-0.342021465301514,0
424700,-0.342021465301514,0
424810,-0.342228621244431,0
424920,-0.342021465301514,0
425030,-0.341814309358597,0
425140,-0.341814309358597,0
425250,-0.34160715341568,0
425360,-0.341399997472763,0
425470,-0.341399997472763,0
425580,-0.34305727481842,0
425690,-0.341399997472763,0
425800,-0.342228621244431,0
425910,-0.342021465301514,0
426010,-0.342642962932587,0
426120,-0.340985685586929,0
426230,-0.342021465301514,0
426340,-0.342021465301514,0
426450,-0.342228621244431,0
426560,-0.34243580698967,0
426670,-0.341814309358597,0
426780,-0.340985685586929,0
426890,-0.342228621244431,0
427000,-0.341814309358597,0
427110,-0.341399997472763,0
427220,-0.343264430761337,0
427330,-0.342021465301514,0
427430,-0.34243580698967,0
427540,-0.342228621244431,0
427650,-0.34243580698967,0
427760,-0.34243580698967,0
427870,-0.34160715341568,0
427980,-0.341814309358597,0
428090,-0.342021465301514,0
428200,-0.342021465301514,0
428310,-0.342642962932587,0
428420,-0.34243580698967,0
428530,-0.341192841529846,0
428640,-0.341399997472763,0
428740,-0.341814309358597,0
428850,-0.341814309358597,0
428960,-0.340985685586929,0
429070,-0.341814309358597,0
429180,-0.342021465301514,0
429290,-0.341814309358597,0
429400,-0.342228621244431,0
429510,-0.342228621244431,0
429620,-0.342642962932587,0
429730,-0.34243580698967,0
429840,-0.342021465301514,0
429950,-0.342228621244431,0
430060,-0.34160715341568,0
430160,-0.341814309358597,0
430270,-0.340985685586929,0
430380,-0.342850118875504,0
430490,-0.341192841529846,0
430600,-0.342021465301514,0
430710,-0.342021465301514,0
430820,-0.34160715341568,0
430930,-0.342228621244431,0
431040,-0.342021465301514,0
431150,-0.342642962932587,0
431260,-0.342021465301514,0
431370,-0.342021465301514,0
431470,-0.341192841529846,0
431580,-0.342850118875504,0
431690,-0.34243580698967,0
431800,-0.341399997472763,0
431910,-0.341399997472763,0
432020,-0.341192841529846,0
432130,-0.34243580698967,0
432240,-0.342228621244431,0
432350,-0.341399997472763,0
432460,-0.34160715341568,0
432570,-0.342228621244431,0
432680,-0.342228621244431,0
432790,-0.342021465301514,0
432890,-0.342021465301514,0
433000,-0.341399997472763,0
433110,-0.34243580698967,0
433220,-0.342228621244431,0
433330,-0.342642962932587,0
433440,-0.341814309358597,0
433550,-0.342228621244431,0
433660,-0.341814309358597,0
433770,-0.34243580698967,0
433880,-0.342021465301514,0
433990,-0.341399997472763,0
434100,-0.342642962932587,0
434200,-0.341399997472763,0
434310,-0.341399997472763,0
434420,-0.342642962932587,0
434530,-0.34160715341568,0
434640,-0.342228621244431,0
434750,-0.34160715341568,0
434860,-0.341814309358597,0
434970,-0.34243580698967,0
435080,-0.342228621244431,0
435190,-0.342021465301514,0
435300,-0.342642962932587,0
435410,-0.341814309358597,0
435520,-0.341814309358597,0
435620,-0.342642962932587,0
435730,-0.343264430761337,0
435840,-0.341192841529846,0
435950,-0.34160715341568,0
436060,-0.34077849984169,0
436170,-0.34160715341568,0
436280,-0.342228621244431,0
436390,-0.342021465301514,0
436500,-0.342021465301514,0
436610,-0.342228621244431,0
436720,-0.341192841529846,0
436830,-0.342228621244431,0
436930,-0.341192841529846,0
437040,-0.342021465301514,0
437150,-0.341814309358597,0
437260,-0.342850118875504,0
437370,-0.34077849984169,0
437480,-0.342021465301514,0
437590,-0.341399997472763,0
437700,-0.34160715341568,0
437810,-0.342228621244431,0
437920,-0.34160715341568,0
438030,-0.34243580698967,0
438140,-0.341399997472763,0
438250,-0.34160715341568,0
438350,-0.341399997472763,0
438460,-0.341814309358597,0
438570,-0.342021465301514,0
438680,-0.341814309358597,0
438790,-0.341814309358597,0
438900,-0.341192841529846,0
439010,-0.34243580698967,0
439120,-0.34077849984169,0
439230,-0.342228621244431,0
439340,-0.342642962932587,0
439450,-0.34243580698967,0
439560,-0.341814309358597,0
439660,-0.342228621244431,0
439770,-0.341814309358597,0
439880,-0.342021465301514,0
439990,-0.34243580698967,0
440100,-0.341814309358597,0
440210,-0.34243580698967,0
440320,-0.342021465301514,0
440430,-0.341814309358597,0
440540,-0.341192841529846,0
440650,-0.341814309358597,0
440760,-0.342021465301514,0
440870,-0.341814309358597,0
440980,-0.341399997472763,0
441080,-0.342021465301514,0
441190,-0.341399997472763,0
441300,-0.342021465301514,0
441410,-0.34305727481842,0
441520,-0.341399997472763,0
441630,-0.341814309358597,0
441740,-0.341814309358597,0
441850,-0.342228621244431,0
441960,-0.341814309358597,0
442070,-0.341399997472763,0
442180,-0.34243580698967,0
442290,-0.342021465301514,0
442390,-0.341814309358597,0
442500,-0.342021465301514,0
442610,-0.340985685586929,0
442720,-0.342642962932587,0
442830,-0.34305727481842,0
442940,-0.339949876070023,0
443050,-0.34388592839241,0
443160,-0.344300240278244,0
443270,-0.34305727481842,0
443380,-0.342850118875504,0
443490,-0.343264430761337,0
443600,-0.341814309358597,0
443710,-0.341192841529846,0
443810,-0.34077849984169,0
443920,-0.342642962932587,0
444030,-0.34305727481842,0
444140,-0.342642962932587,0
444250,-0.34243580698967,0
444360,-0.342228621244431,0
444470,-0.341192841529846,0
444580,-0.341814309358597,0
444690,-0.341814309358597,0
444800,-0.342642962932587,0
444910,-0.34243580698967,0
445020,-0.342228621244431,0
445120,-0.34305727481842,0
445230,-0.341814309358597,0
445340,-0.34160715341568,0
445450,-0.341814309358597,0
445560,-0.342021465301514,0
445670,-0.34243580698967,0
445780,-0.342021465301514,0
445890,-0.342228621244431,0
446000,-0.341814309358597,0
446110,-0.34243580698967,0
446220,-0.343264430761337,0
446330,-0.34243580698967,0
446440,-0.341399997472763,0
446540,-0.341814309358597,0
446650,-0.342228621244431,0
446760,-0.34243580698967,0
446870,-0.342021465301514,0
446980,-0.342850118875504,0
447090,-0.342228621244431,0
447200,-0.342850118875504,0
447310,-0.34305727481842,0
447420,-0.34160715341568,0
447530,-0.342850118875504,0
447640,-0.341192841529846,0
447750,-0.34077849984169,0
447850,-0.341399997472763,0
447960,-0.34243580698967,0
448070,-0.342021465301514,0
448180,-0.34160715341568,0
448290,-0.34160715341568,0
448400,-0.342850118875504,0
448510,-0.34160715341568,0
448620,-0.341814309358597,0
448730,-0.342228621244431,0
448840,-0.342642962932587,0
448950,-0.342850118875504,0
449060,-0.340985685586929,0
449170,-0.340985685586929,0
449270,-0.34243580698967,0
449380,-0.34160715341568,0
449490,-0.34160715341568,0
449600,-0.341399997472763,0
449710,-0.341192841529846,0
449820,-0.342021465301514,0
449930,-0.342228621244431,0
450040,-0.341814309358597,0
450150,-0.343471586704254,0
450260,-0.341814309358597,0
450370,-0.340571343898773,0
450480,-0.342228621244431,0
450580,-0.342021465301514,0
450690,-0.342021465301514,0
450800,-0.342021465301514,0
450910,-0.341192841529846,0
451020,-0.340985685586929,0
451130,-0.342021465301514,0
451240,-0.341814309358597,0
451350,-0.342021465301514,0
451460,-0.342850118875504,0
451570,-0.342228621244431,0
451680,-0.34160715341568,0
451790,-0.342021465301514,0
451900,-0.34305727481842,0
452000,-0.341814309358597,0
452110,-0.341399997472763,0
452220,-0.342021465301514,0
452330,-0.342021465301514,0
452440,-0.342021465301514,0
452550,-0.34388592839241,0
452660,-0.341399997472763,0
452770,-0.341192841529846,0
452880,-0.341399997472763,0
452990,-0.341192841529846,0
453100,-0.341399997472763,0
453210,-0.342228621244431,0
453310,-0.342850118875504,0
453420,-0.342228621244431,0
453530,-0.342021465301514,0
453640,-0.341192841529846,0
453750,-0.341399997472763,0
453860,-0.342228621244431,0
453970,-0.341814309358597,0
454080,-0.342850118875504,0
454190,-0.34243580698967,0
454300,-0.342228621244431,0
454410,-0.34077849984169,0
454520,-0.34243580698967,0
454630,-0.342021465301514,0
454730,-0.341814309358597,0
454840,-0.342228621244431,0
454950,-0.342850118875504,0
455060,-0.34243580698967,0
455170,-0.341399997472763,0
455280,-0.342228621244431,0
455390,-0.341399997472763,0
455500,-0.341399997472763,0
455610,-0.341399997472763,0
455720,-0.341399997472763,0
455830,-0.341399997472763,0
455940,-0.342021465301514,0
456040,-0.342642962932587,0
456150,-0.342021465301514,0
456260,-0.341814309358597,0
456370,-0.341399997472763,0
456480,-0.34243580698967,0
456590,-0.34160715341568,0
456700,-0.342021465301514,0
456810,-0.341814309358597,0
456920,-0.34160715341568,0
457030,-0.342021465301514,0
457140,-0.342642962932587,0
457250,-0.34160715341568,0
457360,-0.341814309358597,0
457460,-0.342228621244431,0
457570,-0.341399997472763,0
457680,-0.339949876070023,0
457790,-0.34160715341568,0
457900,-0.341399997472763,0
458010,-0.34243580698967,0
458120,-0.341814309358597,0
458230,-0.342021465301514,0
458340,-0.341192841529846,0
458450,-0.341399997472763,0
458560,-0.34160715341568,0
458670,-0.342021465301514,0
458770,-0.34160715341568,0
458880,-0.341814309358597,0
458990,-0.340985685586929,0
459100,-0.340985685586929,0
459210,-0.341399997472763,0
459320,-0.342228621244431,0
459430,-0.34243580698967,0
459540,-0.341192841529846,0
459650,-0.342021465301514,0
459760,-0.342021465301514,0
459870,-0.342021465301514,0
459980,-0.34243580698967,0
460090,-0.342021465301514,0
460190,-0.34243580698967,0
460300,-0.34077849984169,0
460410,-0.341814309358597,0
460520,-0.342228621244431,0
460630,-0.341814309358597,0
460740,-0.342850118875504,0
460850,-0.340985685586929,0
460960,-0.341814309358597,0
461070,-0.342021465301514,0
461180,-0.342228621244431,0
461290,-0.34160715341568,0
461400,-0.342642962932587,0
461500,-0.34160715341568,0
461610,-0.342850118875504,0
461720,-0.34160715341568,0
461830,-0.341399997472763,0
461940,-0.341814309358597,0
462050,-0.342021465301514,0
462160,-0.34305727481842,0
462270,-0.34160715341568,0
462380,-0.342228621244431,0
462490,-0.341399997472763,0
462600,-0.34160715341568,0
462710,-0.342021465301514,0
462820,-0.34160715341568,0
462920,-0.340985685586929,0
463030,-0.340985685586929,0
463140,-0.341814309358597,0
463250,-0.341399997472763,0
463360,-0.342642962932587,0
463470,-0.34243580698967,0
463580,-0.342228621244431,0
463690,-0.34160715341568,0
463800,-0.341814309358597,0
463910,-0.341814309358597,0
464020,-0.34305727481842,0
464130,-0.34243580698967,0
464230,-0.342021465301514,0
464340,-0.341399997472763,0
464450,-0.341814309358597,0
464560,-0.342850118875504,0
464670,-0.342228621244431,0
464780,-0.341399997472763,0
464890,-0.341399997472763,0
465000,-0.341192841529846,0
465110,-0.342228621244431,0
465220,-0.341814309358597,0
465330,-0.34160715341568,0
465440,-0.342228621244431,0
465550,-0.34305727481842,0
465650,-0.342850118875504,0
465760,-0.342021465301514,0
465870,-0.342021465301514,0
465980,-0.341192841529846,0
466090,-0.342642962932587,0
466200,-0.34160715341568,0
466310,-0.342021465301514,0
466420,-0.34077849984169,0
466530,-0.342850118875504,0
466640,-0.342228621244431,0
466750,-0.341814309358597,0
466860,-0.34160715341568,0
466960,-0.342021465301514,0
467070,-0.342850118875504,0
467180,-0.342021465301514,0
467290,-0.342021465301514,0
467400,-0.341399997472763,0
467510,-0.34243580698967,0
467620,-0.342021465301514,0
467730,-0.34160715341568,0
467840,-0.34077849984169,0
467950,-0.341399997472763,0
468060,-0.342228621244431,0
468170,-0.34077849984169,0
