time,raw,transformed
6330,-0.343264430761337,0
6440,-0.34388592839241,0
6550,-0.343471586704254,0
6660,-0.343678742647171,0
6770,-0.343264430761337,0
6880,-0.343678742647171,0
6990,-0.344093084335327,0
7100,-0.34305727481842,52.5006473702382
7210,-0.34305727481842,57.7783532179884
7320,-0.344093084335327,52.0005178961927
7420,-0.344300240278244,54.5456725162762
7530,-0.343264430761337,56.9446775521281
7640,-0.344507396221161,58.2418259943031
7750,-0.343471586704254,59.1837783245174
7860,-0.34388592839241,58.0952772411525
7970,-0.344093084335327,56.25
8080,-0.344507396221161,52.9411764705891
8190,-0.343678742647171,53.1746521069958
8300,-0.34305727481842,55.6391441013632
8410,-0.34243580698967,42.0002589518216
8520,-0.343471586704254,42.3812332546207
8630,-0.342850118875504,44.0911902759658
8740,-0.34388592839241,43.4785110645622
8840,-0.344714552164078,46.5910626629358
8950,-0.34388592839241,46.1819465878483
9060,-0.344300240278244,45.1050094265021
9170,-0.344714552164078,43.4344535218182
9280,-0.344093084335327,42.8572362742277
9390,-0.34305727481842,43.887249830657
9500,-0.342850118875504,45.1516221565404
9610,-0.344714552164078,43.6951182160071
9720,-0.344093084335327,43.1819073526719
9830,-0.344300240278244,42.4243216872229
9940,-0.34388592839241,42.2460522489457
10050,-0.344093084335327,41.8182327729558
10150,-0.34305727481842,42.676827124004
10260,-0.344093084335327,42.2604904609033
10370,-0.342642962932587,43.5407199172905
10480,-0.343471586704254,43.8229078429442
10590,-0.343471586704254,44.0909863723152
10700,-0.343264430761337,44.5677144904109
10810,-0.34388592839241,44.372367973634
10920,-0.344921708106995,47.8682286710657
11030,-0.344093084335327,47.5378810584362
11140,-0.344507396221161,46.8518496317519
11250,-0.34388592839241,46.739117403762
11360,-0.34388592839241,46.6311822918567
11470,-0.344300240278244,46.1805264167456
11570,-0.343678742647171,46.2584870904243
11680,-0.343264430761337,46.666658674308
11790,-0.343678742647171,46.7320300616144
11900,-0.343471586704254,46.9551416538094
12010,-0.343678742647171,47.0126031212274
12120,-0.344714552164078,46.2963184972935
12230,-0.342850118875504,46.9697223999322
12340,-0.342642962932587,47.7678839029887
12450,-0.344921708106995,46.92985085206
12560,-0.344300240278244,46.5517448078249
12670,-0.344300240278244,46.1864559176332
12780,-0.34388592839241,46.1111177714098
12890,-0.342850118875504,46.7213213020818
12990,-0.34388592839241,46.6397865575986
13100,-0.343678742647171,46.6931327936217
13210,-0.342850118875504,47.2656390490691
13320,-0.343471586704254,47.4359189537876
13430,-0.343471586704254,47.6010388613946
13540,-0.34388592839241,47.5124586865104
13650,-0.343264430761337,47.7941440923655
13760,-0.34305727481842,48.1884362028166
13870,-0.342228621244431,45.2743081629263
13980,-0.342021465301514,42.8568265195587
14090,-0.344507396221161,42.4600014386124
14200,-0.343678742647171,42.4654437429378
14300,-0.343264430761337,42.6637851835156
14410,-0.342642962932587,43.142545932837
14520,-0.344714552164078,42.668863885637
14630,-0.343264430761337,42.8568359175869
14740,-0.343471586704254,42.9484149442846
14850,-0.343678742647171,42.9472614596001
14960,-0.343264430761337,43.1247045706777
15070,-0.342850118875504,43.4741295887804
15180,-0.343264430761337,43.6408195980106
15290,-0.342850118875504,43.9756064828181
15400,-0.343471586704254,44.0473254532607
15510,-0.343678742647171,44.0333250320967
15620,-0.344714552164078,43.6043643962081
15720,-0.344507396221161,43.2673650432786
15830,-0.34388592839241,43.1815262556088
15940,-0.343471586704254,43.2581383201543
16050,-0.343264430761337,43.412411342659
16160,-0.344300240278244,43.1708258447954
16270,-0.34388592839241,43.0897685174437
16380,-0.34388592839241,43.0104543584218
16490,-0.342228621244431,43.5407398402925
16600,-0.344093084335327,43.3831619617921
16710,-0.34388592839241,43.3032701885261
16820,-0.344507396221161,43.0041171009277
16930,-0.342850118875504,43.2941580594595
17030,-0.343471586704254,43.3618938366359
17140,-0.34305727481842,43.5711291051828
17250,-0.342642962932587,43.9176609099116
17360,-0.34388592839241,43.8372284669543
17470,-0.344714552164078,43.4809710094664
17580,-0.344300240278244,43.2689244712709
17690,-0.342642962932587,43.605133203761
17800,-0.34388592839241,43.5306843219164
17910,-0.342850118875504,43.7914081229935
18020,-0.343264430761337,43.9150312917224
18130,-0.343678742647171,43.9053272400026
18240,-0.344093084335327,43.7659228231186
18350,-0.34388592839241,43.6933789393825
18450,-0.34243580698967,44.0685590535687
18560,-0.344093084335327,43.9314111095801
18670,-0.34305727481842,44.1099550532795
18780,-0.343471586704254,44.161172835425
18890,-0.343678742647171,44.1499324631738
19000,-0.34305727481842,44.3220306531587
19110,-0.343471586704254,44.3701490374539
19220,-0.344300240278244,44.1773589702221
19330,-0.344300240278244,43.9877820707801
19440,-0.344921708106995,43.6242466817653
19550,-0.344093084335327,43.5008581137403
19660,-0.344093084335327,43.3794758638934
19760,-0.343678742647171,43.3752646847845
19870,-0.342850118875504,43.5996876156019
19980,-0.342642962932587,43.8772364550237
20090,-0.34388592839241,43.8129554729247
20200,-0.344300240278244,43.6380740320194
20310,-0.343471586704254,43.5822716074438
20420,-0.344093084335327,43.5264691828682
20530,-0.344714552164078,43.1916466074438
20640,-0.343678742647171,43.1916466074438
20750,-0.342642962932587,43.3590538811706
20860,-0.343264430761337,43.4706587303218
20970,-0.342642962932587,43.8612837303218
21080,-0.34305727481842,43.8612837303218
21180,-0.344093084335327,43.5822635794731
21290,-0.34388592839241,43.6380660040487
21400,-0.342228621244431,44.1961063057462
21510,-0.343264430761337,44.1961063057462
21620,-0.344300240278244,44.2519087303218
21730,-0.343678742647171,44.1961063057462
21840,-0.344921708106995,43.9170941828682
21950,-0.343471586704254,44.0845094845657
22060,-0.344714552164078,44.0287070599901
22170,-0.343678742647171,44.0287070599901
22280,-0.342642962932587,44.1403119091414
22390,-0.342642962932587,44.0845094845657
22490,-0.344093084335327,43.9170941828682
22600,-0.342642962932587,43.9728966074438
22710,-0.342642962932587,44.3077191828682
22820,-0.34305727481842,44.7541466074438
22930,-0.34388592839241,44.7541466074438
23040,-0.34305727481842,45.0889691828682
23150,-0.343264430761337,45.4795941828682
23260,-0.342850118875504,45.8144167582926
23370,-0.343678742647171,45.6470094845657
23480,-0.343264430761337,45.5354046354145
23590,-0.34305727481842,45.9818320599901
23700,-0.344507396221161,45.8702272108389
23810,-0.344300240278244,45.8702272108389
23910,-0.34388592839241,45.8702272108389
24020,-0.343264430761337,46.0934449371121
24130,-0.343471586704254,45.9818400879609
24240,-0.342642962932587,46.3724650879609
24350,-0.343471586704254,46.1492553896584
24460,-0.343264430761337,46.205057814234
24570,-0.345128864049912,45.7586303896584
24680,-0.34305727481842,45.814432814234
24790,-0.343471586704254,45.926045691356
24900,-0.344300240278244,46.0934529650828
25010,-0.34388592839241,46.1492553896584
25120,-0.344714552164078,46.0934529650828
25220,-0.342850118875504,46.3724731159316
25330,-0.344093084335327,46.316670691356
25440,-0.344921708106995,46.1492634176292
25550,-0.344714552164078,45.8702432667804
25660,-0.343264430761337,45.8702432667804
25770,-0.342850118875504,46.0934529650828
25880,-0.344507396221161,45.814432814234
25990,-0.343264430761337,45.9260376633853
26100,-0.342850118875504,46.4282675125365
26210,-0.343678742647171,46.205057814234
26320,-0.34243580698967,46.2608602388097
26430,-0.34388592839241,46.5398723616877
26540,-0.343471586704254,46.7630900879609
26640,-0.344507396221161,46.7072876633853
26750,-0.344714552164078,46.4840779650828
26860,-0.34388592839241,46.205057814234
26970,-0.342642962932587,46.5398803896584
27080,-0.344093084335327,46.4282675125365
27190,-0.343471586704254,46.2608602388097
27300,-0.343678742647171,46.205057814234
27410,-0.343471586704254,46.205057814234
27520,-0.34305727481842,46.4282755405072
27630,-0.34388592839241,46.2608602388097
27740,-0.343264430761337,46.205057814234
27850,-0.344093084335327,45.7028199371121
27950,-0.345128864049912,44.8657675125365
28060,-0.34388592839241,45.0331747862633
28170,-0.34388592839241,44.977364333717
28280,-0.34243580698967,45.2005740320194
28390,-0.343471586704254,44.977364333717
28500,-0.344093084335327,45.1447716074438
28610,-0.343471586704254,45.0889691828682
28720,-0.344300240278244,44.865751456595
28830,-0.342850118875504,45.0889611548974
28940,-0.343264430761337,45.0889611548974
29050,-0.34305727481842,45.0331587303218
29160,-0.343264430761337,45.0331587303218
29270,-0.342642962932587,45.0889611548974
29370,-0.343678742647171,45.0331587303218
29480,-0.344300240278244,44.8657434286243
29590,-0.343471586704254,45.2005660040487
29700,-0.34388592839241,45.3679732777755
29810,-0.343678742647171,45.4237837303218
29920,-0.343264430761337,45.4795861548974
30030,-0.344921708106995,45.0331587303218
30140,-0.344714552164078,44.9215538811706
30250,-0.343471586704254,45.0331667582926
30360,-0.343471586704254,45.1447796354145
30470,-0.343264430761337,44.8657594845657
30580,-0.342021465301514,45.4237997862633
30680,-0.342850118875504,45.7028199371121
30790,-0.342850118875504,46.1492473616877
30900,-0.343471586704254,45.9818400879609
31010,-0.34305727481842,46.0934449371121
31120,-0.34388592839241,45.8702272108389
31230,-0.343678742647171,45.5912150879609
31340,-0.343471586704254,45.7028279650828
31450,-0.344714552164078,45.7028279650828
31560,-0.343678742647171,45.8702432667804
31670,-0.344300240278244,45.4238158422048
31780,-0.342228621244431,45.8702512947511
31890,-0.343471586704254,45.7028440210243
32000,-0.344093084335327,45.4796262947511
32100,-0.342850118875504,45.7028359930536
32210,-0.343471586704254,45.8702512947511
32320,-0.344300240278244,45.7586464455999
32430,-0.344093084335327,45.3122190210243
32540,-0.344507396221161,45.2006141718731
32650,-0.344921708106995,44.6983843227219
32760,-0.343678742647171,44.6425818981462
32870,-0.344093084335327,44.5309690210243
32980,-0.342228621244431,44.7541867472975
33090,-0.344507396221161,44.4751665964487
33200,-0.343264430761337,44.7541867472975
33310,-0.34388592839241,44.8657915964487
33410,-0.344507396221161,44.9773964455999
33520,-0.344300240278244,44.9215940210243
33630,-0.34388592839241,44.9773964455999
33740,-0.34388592839241,44.9215859930536
33850,-0.343264430761337,44.8099811439023
33960,-0.34305727481842,44.6983762947511
34070,-0.344507396221161,44.5309690210243
34180,-0.343264430761337,44.8099891718731
34290,-0.344093084335327,44.6425738701755
34400,-0.344093084335327,44.6425738701755
34510,-0.343678742647171,44.9215940210243
34620,-0.34388592839241,44.8657835684779
34730,-0.343264430761337,44.6983762947511
34830,-0.344507396221161,44.3635537193267
34940,-0.343678742647171,44.0845415964487
35050,-0.344921708106995,43.5823117472975
35160,-0.34305727481842,43.8613318981462
35270,-0.343264430761337,44.0287471998438
35380,-0.344300240278244,43.4707068981462
35490,-0.343678742647171,43.359102048995
35600,-0.343678742647171,43.5265173506926
35710,-0.344093084335327,43.4149044735706
35820,-0.34305727481842,43.9171343227219
35930,-0.34305727481842,44.0287391718731
36040,-0.344093084335327,44.1961464455999
36140,-0.342850118875504,44.4193561439023
36250,-0.34388592839241,44.0845335684779
36360,-0.34305727481842,43.9729287193267
36470,-0.34388592839241,44.0287311439023
36580,-0.344300240278244,43.5823037193267
36690,-0.345336049795151,42.8568561439023
36800,-0.343678742647171,42.6894488701755
36910,-0.34305727481842,42.9126665964487
37020,-0.345543205738068,42.2430214455999
37130,-0.343678742647171,42.1314165964487
37240,-0.34305727481842,42.0756141718731
37350,-0.34388592839241,42.0198037193267
37460,-0.344093084335327,41.7965859930536
37560,-0.344093084335327,41.5175658422048
37670,-0.34243580698967,42.0755981159316
37780,-0.34305727481842,42.410420691356
37890,-0.343264430761337,42.5778359930536
38000,-0.344300240278244,42.2988158422048
38110,-0.34305727481842,42.410420691356
38220,-0.344921708106995,41.7965859930536
38330,-0.343471586704254,41.7965859930536
38440,-0.342642962932587,41.9639932667804
38550,-0.343678742647171,42.3546182667804
38660,-0.34388592839241,42.1314005405072
38770,-0.343471586704254,42.1314005405072
38870,-0.343471586704254,42.3546182667804
38980,-0.343264430761337,42.5220335684779
39090,-0.343264430761337,42.9126585684779
39200,-0.34243580698967,43.0242634176292
39310,-0.343264430761337,43.2474811439023
39420,-0.343678742647171,43.5823037193267
39530,-0.344093084335327,43.7497109930536
39640,-0.343471586704254,43.6939085684779
39750,-0.34305727481842,43.6381061439023
39860,-0.34388592839241,43.8055134176292
39970,-0.344093084335327,43.582295691356
40080,-0.343471586704254,43.4148884176292
40190,-0.34243580698967,43.7497029650828
40290,-0.344714552164078,43.1358682667804
40400,-0.343471586704254,43.2474811439023
40510,-0.344300240278244,43.0242634176292
40620,-0.343678742647171,43.2474811439023
40730,-0.342228621244431,43.9171262947511
40840,-0.343678742647171,43.9729367472975
40950,-0.342850118875504,43.9171343227219
41060,-0.343678742647171,44.0287471998438
41170,-0.345957517623901,43.359102048995
41280,-0.344921708106995,43.0242794735706
41390,-0.344093084335327,42.8568641718731
41500,-0.34305727481842,42.8568641718731
41600,-0.34388592839241,42.8568641718731
41710,-0.344921708106995,42.4104367472975
41820,-0.34388592839241,42.4662391718731
41930,-0.34388592839241,42.8010537193267
42040,-0.34243580698967,43.1916787193267
42150,-0.343678742647171,43.2474891718731
42260,-0.342850118875504,43.1358843227219
42370,-0.342850118875504,43.3032915964487
42480,-0.34305727481842,43.5823117472975
42590,-0.344093084335327,43.4148964455999
42700,-0.343264430761337,43.6939165964487
42810,-0.342850118875504,43.6939165964487
42920,-0.344300240278244,43.4148964455999
43020,-0.34388592839241,43.1916787193267
43130,-0.343264430761337,43.1916787193267
43240,-0.342642962932587,43.1916787193267
43350,-0.344093084335327,43.0800658422048
43460,-0.344093084335327,43.1358682667804
43570,-0.344507396221161,42.8568481159316
43680,-0.343678742647171,42.9126585684779
43790,-0.34388592839241,42.8568481159316
43900,-0.343264430761337,42.8568481159316
44010,-0.343678742647171,43.191670691356
44120,-0.34243580698967,43.8055053896584
44230,-0.344093084335327,43.6380900879609
44330,-0.342850118875504,43.8054973616877
44440,-0.344093084335327,43.5822796354145
44550,-0.344507396221161,42.9126344845657
44660,-0.343264430761337,42.8010296354145
44770,-0.344093084335327,42.4662070599901
44880,-0.344093084335327,42.2987917582926
44990,-0.34388592839241,42.0755740320194
45100,-0.344921708106995,41.7965619091414
45210,-0.343678742647171,41.7965619091414
45320,-0.343264430761337,41.852364333717
45430,-0.344714552164078,41.852364333717
45540,-0.343678742647171,41.852364333717
45650,-0.343471586704254,42.0755820599901
45750,-0.34305727481842,41.852364333717
45860,-0.34388592839241,41.740751456595
45970,-0.343678742647171,41.852364333717
46080,-0.34305727481842,41.7965619091414
46190,-0.34305727481842,41.9081667582926
46300,-0.344507396221161,41.852364333717
46410,-0.343471586704254,42.0197796354145
46520,-0.343678742647171,42.2429973616877
46630,-0.34388592839241,42.5220094845657
46740,-0.34305727481842,42.6894167582926
46850,-0.344921708106995,42.4662070599901
46960,-0.342850118875504,42.2987917582926
47060,-0.343264430761337,42.633614333717
47170,-0.342850118875504,42.7452191828682
47280,-0.344300240278244,42.633614333717
47390,-0.343678742647171,42.8568320599901
47500,-0.34388592839241,42.9684369091414
47610,-0.34388592839241,42.9684369091414
47720,-0.343471586704254,43.0800497862633
47830,-0.343678742647171,42.9684449371121
47940,-0.34305727481842,42.9684449371121
48050,-0.34305727481842,43.3590699371121
48160,-0.344300240278244,43.0800497862633
48270,-0.343678742647171,43.1916626633853
48380,-0.344507396221161,43.080057814234
48480,-0.343678742647171,43.080057814234
48590,-0.344300240278244,42.9684529650828
48700,-0.344093084335327,42.7452352388097
48810,-0.344093084335327,42.8568400879609
48920,-0.342850118875504,43.0800497862633
49030,-0.34388592839241,43.3590619091414
49140,-0.344093084335327,43.0800417582926
49250,-0.344507396221161,42.7452191828682
49360,-0.342642962932587,43.1916466074438
49470,-0.343264430761337,43.303251456595
49580,-0.343678742647171,43.303251456595
49690,-0.344714552164078,43.1358441828682
49790,-0.343678742647171,42.9684369091414
49900,-0.343264430761337,42.9126344845657
50010,-0.343471586704254,43.0800497862633
50120,-0.344300240278244,42.6894247862633
50230,-0.344093084335327,42.6336223616877
50340,-0.34388592839241,42.4104046354145
50450,-0.343264430761337,42.5778199371121
50560,-0.344300240278244,42.5778199371121
50670,-0.344921708106995,42.689432814234
50780,-0.343264430761337,42.8010376633853
50890,-0.34305727481842,42.8010376633853
51000,-0.343678742647171,43.3032755405072
51110,-0.344093084335327,43.1916626633853
51210,-0.344300240278244,42.8568400879609
51320,-0.34388592839241,42.8568400879609
51430,-0.344093084335327,42.8568400879609
51540,-0.343471586704254,43.0242553896584
51650,-0.342642962932587,42.9684529650828
51760,-0.344507396221161,42.5778279650828
51870,-0.343678742647171,42.4662231159316
51980,-0.344093084335327,42.5220255405072
52090,-0.344093084335327,42.2430053896584
52200,-0.344093084335327,42.4662150879609
52310,-0.343471586704254,42.4662150879609
52420,-0.344300240278244,42.0197876633853
52520,-0.342642962932587,42.2987997862633
52630,-0.342642962932587,42.6336223616877
52740,-0.344714552164078,42.2987997862633
52850,-0.342850118875504,42.4662070599901
52960,-0.344507396221161,42.1313844845657
53070,-0.342850118875504,42.242989333717
53180,-0.342642962932587,42.1871869091414
53290,-0.344093084335327,41.9639691828682
53400,-0.34388592839241,41.9081587303218
53510,-0.343471586704254,42.0755740320194
53620,-0.344300240278244,41.8523563057462
53730,-0.343471586704254,41.740751456595
53840,-0.344714552164078,41.5175417582926
53940,-0.34388592839241,41.5733441828682
54050,-0.344093084335327,41.4059288811706
54160,-0.344093084335327,40.959501456595
54270,-0.344507396221161,41.0153038811706
54380,-0.343471586704254,41.0153038811706
54490,-0.343678742647171,41.1827191828682
54600,-0.343471586704254,41.2385216074438
54710,-0.343264430761337,40.959501456595
54820,-0.342850118875504,41.1827111548974
54930,-0.343471586704254,41.0153038811706
55040,-0.344507396221161,40.7920861548974
55150,-0.343471586704254,41.4617313057462
55250,-0.344093084335327,41.6849410040487
55360,-0.34305727481842,41.9639611548974
55470,-0.343471586704254,41.8523563057462
55580,-0.344093084335327,41.7965538811706
55690,-0.343471586704254,42.1871788811706
55800,-0.343678742647171,42.242989333717
55910,-0.343678742647171,42.2987997862633
56020,-0.343471586704254,42.0197876633853
56130,-0.344300240278244,41.8523723616877
56240,-0.343678742647171,41.6291626633853
56350,-0.343471586704254,41.4617553896584
56460,-0.344714552164078,41.0153279650828
56570,-0.34388592839241,41.0711303896584
56670,-0.344093084335327,40.8479126633853
56780,-0.34388592839241,40.5688925125365
56890,-0.345750361680985,40.1782675125365
57000,-0.343264430761337,40.345682814234
57110,-0.343264430761337,40.345682814234
57220,-0.343471586704254,40.1224731159316
57330,-0.342850118875504,40.457295691356
57440,-0.343678742647171,40.5689085684779
57550,-0.34388592839241,40.7363158422048
57660,-0.344300240278244,40.5689005405072
57770,-0.343678742647171,40.6247109930536
57880,-0.34388592839241,40.457295691356
57980,-0.343678742647171,40.457295691356
58090,-0.34388592839241,40.066670691356
58200,-0.344093084335327,40.066670691356
58310,-0.342228621244431,40.2340859930536
58420,-0.344093084335327,40.2340859930536
58530,-0.34388592839241,40.4014932667804
58640,-0.344300240278244,40.1224731159316
58750,-0.344093084335327,40.1224731159316
58860,-0.343471586704254,40.2898884176292
58970,-0.342850118875504,40.5689085684779
59080,-0.34388592839241,40.847920691356
59190,-0.342850118875504,41.0711303896584
59300,-0.343471586704254,41.0153279650828
59400,-0.34388592839241,41.2385376633853
59510,-0.342850118875504,41.4617473616877
59620,-0.34388592839241,41.3501344845657
59730,-0.343471586704254,41.2385296354145
59840,-0.343471586704254,41.3501425125365
59950,-0.343264430761337,41.4617473616877
60060,-0.34388592839241,41.2385296354145
60170,-0.34388592839241,41.0153119091414
60280,-0.343264430761337,41.3501344845657
60390,-0.343678742647171,41.2943320599901
60500,-0.344093084335327,41.1827191828682
60610,-0.344093084335327,41.1269167582926
60710,-0.34388592839241,40.9036990320194
60820,-0.34305727481842,41.4059288811706
60930,-0.342642962932587,41.4617313057462
61040,-0.343471586704254,41.4059288811706
61150,-0.343678742647171,41.1827191828682
61260,-0.34243580698967,41.6849490320194
61370,-0.344507396221161,41.4617313057462
61480,-0.343264430761337,41.6291466074438
61590,-0.344507396221161,41.461739333717
61700,-0.346371829509735,40.680489333717
61810,-0.343264430761337,40.7920941828682
61920,-0.343264430761337,40.7362917582926
62030,-0.342850118875504,40.7920941828682
62130,-0.34305727481842,41.1269167582926
62240,-0.344507396221161,40.9036990320194
62350,-0.344300240278244,40.959501456595
62460,-0.344093084335327,40.8478885794731
62570,-0.343678742647171,41.0153038811706
62680,-0.343471586704254,41.1827191828682
62790,-0.343678742647171,41.2943320599901
62900,-0.344300240278244,40.9037070599901
63010,-0.343678742647171,40.9595175125365
63120,-0.34388592839241,41.0153199371121
63230,-0.343678742647171,41.2385376633853
63340,-0.34305727481842,41.126932814234
63440,-0.344507396221161,40.7921102388097
63550,-0.344300240278244,40.6246949371121
63660,-0.343264430761337,41.0153199371121
63770,-0.344300240278244,40.8479046354145
63880,-0.343471586704254,40.7921022108389
63990,-0.34388592839241,40.680489333717
64100,-0.342850118875504,41.071114333717
64210,-0.343678742647171,41.1827272108389
64320,-0.34388592839241,41.1827272108389
64430,-0.345128864049912,40.6804973616877
64540,-0.343678742647171,40.8479126633853
64650,-0.34388592839241,41.1269247862633
64760,-0.342642962932587,41.2943320599901
64860,-0.343471586704254,41.1827272108389
64970,-0.342850118875504,41.4059369091414
65080,-0.343471586704254,41.5733522108389
65190,-0.342642962932587,42.0197796354145
65300,-0.343264430761337,42.1871949371121
65410,-0.34305727481842,42.4662150879609
65520,-0.34388592839241,42.3546022108389
65630,-0.343264430761337,42.1871949371121
65740,-0.343471586704254,42.4662150879609
65850,-0.34243580698967,42.8010296354145
65960,-0.344714552164078,42.6336223616877
66070,-0.343264430761337,42.8568400879609
66170,-0.34305727481842,43.1358602388097
66280,-0.343471586704254,43.1358602388097
66390,-0.344093084335327,43.1916626633853
66500,-0.34388592839241,42.8568400879609
66610,-0.34388592839241,42.5220175125365
66720,-0.343264430761337,42.9126425125365
66830,-0.34243580698967,43.0242473616877
66940,-0.343264430761337,43.3590699371121
67050,-0.343678742647171,43.1358602388097
67160,-0.343471586704254,42.9126505405072
67270,-0.34388592839241,42.9684529650828
67380,-0.344921708106995,42.6894408422048
67490,-0.344093084335327,42.5220255405072
67590,-0.344507396221161,42.4662231159316
67700,-0.34388592839241,42.3546102388097
67810,-0.343678742647171,42.6336303896584
67920,-0.344921708106995,42.3546182667804
68030,-0.343471586704254,42.5220335684779
68140,-0.344507396221161,42.4104287193267
68250,-0.342642962932587,42.9126585684779
68360,-0.343264430761337,42.9684609930536
68470,-0.34388592839241,42.9126505405072
68580,-0.343264430761337,42.9684529650828
68690,-0.34388592839241,42.8010376633853
68800,-0.343471586704254,42.6336303896584
68900,-0.344093084335327,42.4662150879609
69010,-0.343471586704254,42.7452352388097
69120,-0.344300240278244,42.5220175125365
69230,-0.34388592839241,42.5778199371121
69340,-0.34388592839241,42.3546022108389
69450,-0.344714552164078,42.0197796354145
69560,-0.344300240278244,41.9639772108389
69670,-0.343678742647171,41.9081747862633
69780,-0.34305727481842,42.0755820599901
69890,-0.342642962932587,42.3545941828682
70000,-0.343471586704254,42.3545941828682
70110,-0.343471586704254,42.5778119091414
70220,-0.345336049795151,42.131376456595
70320,-0.343264430761337,42.1871788811706
70430,-0.343678742647171,42.4661990320194
70540,-0.344093084335327,42.4103966074438
70650,-0.34388592839241,42.4661990320194
70760,-0.34388592839241,42.4661990320194
70870,-0.343264430761337,43.1358441828682
70980,-0.342228621244431,43.414864333717
71090,-0.344507396221161,43.0800417582926
71200,-0.344300240278244,42.8568240320194
71310,-0.34243580698967,42.9684288811706
71420,-0.344300240278244,42.8010135794731
71530,-0.343678742647171,42.8568240320194
71630,-0.34305727481842,43.1916466074438
71740,-0.34388592839241,43.1358361548974
71850,-0.343471586704254,43.2474490320194
71960,-0.34243580698967,43.5822635794731
72070,-0.344300240278244,43.4706587303218
72180,-0.343264430761337,43.693876456595
72290,-0.343264430761337,43.4148563057462
72400,-0.34388592839241,43.4706587303218
72510,-0.34388592839241,43.4706587303218
72620,-0.343678742647171,43.6380740320194
72730,-0.342642962932587,44.0286990320194
72840,-0.344507396221161,43.7496788811706
72950,-0.343471586704254,43.5822716074438
73050,-0.343678742647171,43.6380820599901
73160,-0.343264430761337,43.5264772108389
73270,-0.34305727481842,43.6380820599901
73380,-0.343678742647171,43.6938925125365
73490,-0.342642962932587,43.7496949371121
73600,-0.343678742647171,43.8055053896584
73710,-0.343678742647171,43.7497029650828
73820,-0.344507396221161,43.470682814234
73930,-0.343678742647171,43.3590779650828
74040,-0.34243580698967,43.7497029650828
74150,-0.343471586704254,43.8613158422048
74260,-0.34305727481842,43.9171182667804
74360,-0.341814309358597,44.4193481159316
74470,-0.343471586704254,44.5867634176292
74580,-0.343471586704254,44.7541787193267
74690,-0.343678742647171,44.8099891718731
74800,-0.344300240278244,44.4751665964487
74910,-0.343471586704254,44.2519568981462
75020,-0.344093084335327,44.0845415964487
75130,-0.343678742647171,44.0845415964487
75240,-0.344714552164078,43.4707068981462
75350,-0.343264430761337,43.8055294735706
75460,-0.343471586704254,43.749727048995
75570,-0.344300240278244,43.8055294735706
75680,-0.344093084335327,44.4193641718731
75780,-0.342642962932587,44.5867714455999
75890,-0.34388592839241,44.4193561439023
76000,-0.344300240278244,44.0287311439023
76110,-0.342642962932587,44.1403359930536
76220,-0.344093084335327,44.2519408422048
76330,-0.344714552164078,44.1403359930536
76440,-0.344300240278244,44.0845335684779
76550,-0.343471586704254,44.1403359930536
76660,-0.344300240278244,43.9171182667804
76770,-0.34388592839241,43.861307814234
76880,-0.34305727481842,44.1961303896584
76990,-0.343471586704254,44.251932814234
77090,-0.343471586704254,44.363545691356
77200,-0.343678742647171,44.363545691356
77310,-0.344921708106995,43.8613158422048
77420,-0.343678742647171,44.0845335684779
77530,-0.343471586704254,44.3077512947511
77640,-0.344093084335327,44.0845335684779
77750,-0.343264430761337,44.3635537193267
77860,-0.344093084335327,44.1961384176292
77970,-0.34388592839241,44.1961384176292
78080,-0.34388592839241,43.9171182667804
78190,-0.342850118875504,44.1403279650828
78300,-0.342850118875504,44.4193481159316
78410,-0.343264430761337,44.9215779650828
78510,-0.342642962932587,45.2005900879609
78620,-0.34388592839241,45.2005900879609
78730,-0.344300240278244,44.7541626633853
78840,-0.343264430761337,44.8099650879609
78950,-0.34388592839241,44.5309449371121
79060,-0.342850118875504,44.6983522108389
79170,-0.344300240278244,44.2519247862633
79280,-0.343264430761337,44.2519247862633
79390,-0.34388592839241,44.0287070599901
79500,-0.344093084335327,43.9729046354145
79610,-0.342850118875504,44.0845094845657
79720,-0.34388592839241,43.9728966074438
79820,-0.34388592839241,43.5822716074438
79930,-0.344714552164078,43.5822716074438
80040,-0.345128864049912,43.0800417582926
80150,-0.342228621244431,43.3032594845657
80260,-0.343678742647171,43.2474570599901
80370,-0.344507396221161,43.1358522108389
80480,-0.342228621244431,43.5822876633853
80590,-0.343678742647171,43.6380981159316
80700,-0.343678742647171,43.5264932667804
80810,-0.343264430761337,43.3032835684779
80920,-0.343264430761337,43.3032835684779
81030,-0.342850118875504,43.5264932667804
81140,-0.343471586704254,43.5264932667804
81240,-0.343678742647171,43.5823037193267
81350,-0.34305727481842,44.0845335684779
81460,-0.343678742647171,44.1961464455999
81570,-0.343678742647171,44.4193641718731
81680,-0.34305727481842,44.6425818981462
81790,-0.343471586704254,44.6983843227219
81900,-0.34305727481842,45.2006141718731
82010,-0.343264430761337,45.2564165964487
82120,-0.344507396221161,45.2564165964487
82230,-0.343264430761337,45.0890093227219
82340,-0.344921708106995,44.6425818981462
82450,-0.343264430761337,44.8099971998438
82550,-0.343264430761337,44.8099971998438
82660,-0.343264430761337,44.9774125015414
82770,-0.344093084335327,44.8099971998438
82880,-0.344093084335327,44.8099971998438
82990,-0.34388592839241,44.6983843227219
83100,-0.343471586704254,44.921602048995
83210,-0.343264430761337,45.0890173506926
83320,-0.343678742647171,45.1448278032389
83430,-0.34388592839241,45.3680375015414
83540,-0.343471586704254,45.5912552278145
83650,-0.344507396221161,45.3680375015414
83760,-0.34388592839241,45.1448197752682
83870,-0.34388592839241,44.8099971998438
83970,-0.343264430761337,44.8657996244194
84080,-0.34305727481842,44.9774044735706
84190,-0.343678742647171,45.423839926117
84300,-0.342642962932587,45.5912471998438
84410,-0.344093084335327,45.4796343227219
84520,-0.344300240278244,45.4238318981462
84630,-0.343264430761337,45.5912471998438
84740,-0.344300240278244,45.4796423506926
84850,-0.343471586704254,45.423839926117
84960,-0.343264430761337,45.1448197752682
85070,-0.344300240278244,45.2006221998438
85180,-0.344093084335327,45.2564246244194
85280,-0.34305727481842,45.0890173506926
85390,-0.343471586704254,45.3122350769658
85500,-0.34305727481842,45.4796423506926
85610,-0.344093084335327,45.2006221998438
85720,-0.344093084335327,45.1448197752682
85830,-0.344714552164078,44.8099971998438
85940,-0.343471586704254,44.5309850769658
86050,-0.34305727481842,44.8658076523902
86160,-0.34305727481842,44.9216100769658
86270,-0.343264430761337,44.9216100769658
86380,-0.344093084335327,44.8658076523902
86490,-0.342850118875504,45.1448278032389
86600,-0.343471586704254,45.2006302278145
86700,-0.34388592839241,44.8658076523902
86810,-0.343264430761337,45.2006302278145
86920,-0.34243580698967,45.4796423506926
87030,-0.342850118875504,45.702852048995
87140,-0.344093084335327,45.4796343227219
87250,-0.344093084335327,45.2006141718731
87360,-0.343471586704254,45.2564165964487
87470,-0.34305727481842,45.1448117472975
87580,-0.344507396221161,44.9215940210243
87690,-0.345128864049912,44.5309690210243
87800,-0.342021465301514,45.2006141718731
87910,-0.342850118875504,45.4238238701755
88010,-0.344507396221161,44.8657915964487
88120,-0.34243580698967,45.1448037193267
88230,-0.344300240278244,44.8099811439023
88340,-0.343264430761337,44.4193561439023
88450,-0.342642962932587,44.6425658422048
88560,-0.34243580698967,44.9215779650828
88670,-0.344300240278244,44.7541626633853
88780,-0.34388592839241,44.8657675125365
88890,-0.34243580698967,45.1447796354145
89000,-0.34388592839241,45.2005820599901
89110,-0.343471586704254,45.2563844845657
89220,-0.343471586704254,45.5912070599901
89330,-0.343471586704254,45.5354046354145
89430,-0.34305727481842,45.6470094845657
89540,-0.344921708106995,45.4796022108389
89650,-0.344507396221161,45.3679973616877
89760,-0.344300240278244,44.9215699371121
89870,-0.343471586704254,45.033182814234
89980,-0.344093084335327,45.0889852388097
90090,-0.343678742647171,44.8099731159316
90200,-0.344300240278244,44.754170691356
90310,-0.343264430761337,45.144795691356
90420,-0.343471586704254,45.3680134176292
90530,-0.344093084335327,45.2005981159316
90640,-0.344507396221161,45.144795691356
90740,-0.344093084335327,45.0889932667804
90850,-0.344921708106995,44.5867634176292
90960,-0.343678742647171,44.5309609930536
91070,-0.34388592839241,44.4193481159316
91180,-0.34388592839241,44.3635376633853
91290,-0.34388592839241,44.6425497862633
91400,-0.34388592839241,44.586739333717
91510,-0.34388592839241,44.475126456595
91620,-0.343678742647171,44.586739333717
91730,-0.344714552164078,44.196114333717
91840,-0.342850118875504,44.5309369091414
91950,-0.344300240278244,44.4193320599901
92060,-0.343264430761337,44.5867473616877
92160,-0.343471586704254,44.4193400879609
92270,-0.343471586704254,44.251932814234
92380,-0.34388592839241,44.0845175125365
92490,-0.344300240278244,43.6380900879609
92600,-0.343678742647171,43.6939005405072
92710,-0.344300240278244,43.6939005405072
92820,-0.344093084335327,43.470682814234
92930,-0.34388592839241,43.470682814234
93040,-0.34243580698967,43.5822876633853
93150,-0.34388592839241,43.6938925125365
93260,-0.343678742647171,43.5822876633853
93370,-0.344093084335327,43.5264852388097
93480,-0.34305727481842,43.8055053896584
93580,-0.343471586704254,43.6380981159316
93690,-0.34305727481842,43.8613158422048
93800,-0.343678742647171,43.9171262947511
93910,-0.343471586704254,44.2519488701755
94020,-0.34243580698967,44.9773884176292
94130,-0.343471586704254,44.6425658422048
94240,-0.34388592839241,44.5867553896584
94350,-0.342850118875504,45.033182814234
94460,-0.343678742647171,44.642557814234
94570,-0.34388592839241,44.5867473616877
94680,-0.344921708106995,44.2519247862633
94790,-0.343678742647171,44.1403199371121
94890,-0.34243580698967,44.3635296354145
95000,-0.344507396221161,43.9171022108389
95110,-0.342850118875504,44.0845094845657
95220,-0.342850118875504,44.3077191828682
95330,-0.343678742647171,44.1403119091414
95440,-0.343264430761337,44.2519167582926
95550,-0.342642962932587,44.5309288811706
95660,-0.344507396221161,44.1403038811706
95770,-0.344093084335327,43.9728885794731
95880,-0.34305727481842,43.9728885794731
95990,-0.343471586704254,43.9170861548974
96100,-0.343678742647171,44.1403038811706
96210,-0.343678742647171,44.0286990320194
96310,-0.344300240278244,44.1961063057462
96420,-0.343264430761337,44.1961063057462
96530,-0.343264430761337,44.1961063057462
96640,-0.343264430761337,44.1961063057462
96750,-0.343264430761337,44.4193240320194
96860,-0.344300240278244,44.3635216074438
96970,-0.343471586704254,44.4751344845657
97080,-0.343264430761337,44.5309369091414
97190,-0.345128864049912,44.0287070599901
97300,-0.344093084335327,43.9170941828682
97410,-0.343264430761337,44.0845094845657
97520,-0.343471586704254,44.0845094845657
97620,-0.343678742647171,44.3077272108389
97730,-0.343471586704254,44.4193400879609
97840,-0.343471586704254,44.5309529650828
97950,-0.345128864049912,44.0287231159316
98060,-0.34305727481842,44.0287231159316
98170,-0.344300240278244,43.861307814234
98280,-0.344300240278244,43.4148803896584
98390,-0.344921708106995,43.191670691356
98500,-0.344093084335327,43.2474731159316
98610,-0.343264430761337,43.2474731159316
98720,-0.344714552164078,43.1358682667804
98830,-0.344507396221161,42.8568481159316
98940,-0.344300240278244,42.5778279650828
99040,-0.343264430761337,42.8568481159316
99150,-0.34388592839241,42.9126505405072
99260,-0.343264430761337,42.8568481159316
99370,-0.34243580698967,43.1358602388097
99480,-0.342642962932587,43.2474650879609
99590,-0.344507396221161,43.1358602388097
99700,-0.344507396221161,43.0242553896584
99810,-0.34388592839241,43.2474650879609
99920,-0.34305727481842,43.3590699371121
100030,-0.344093084335327,43.0800497862633
100140,-0.34243580698967,43.2474570599901
100250,-0.342850118875504,43.3590619091414
100350,-0.34388592839241,43.414864333717
100460,-0.343471586704254,43.2474570599901
100570,-0.344507396221161,42.9684369091414
100680,-0.344300240278244,42.8568320599901
100790,-0.343264430761337,42.8568320599901
100900,-0.343678742647171,42.5220175125365
101010,-0.342642962932587,42.5778199371121
101120,-0.34305727481842,42.8568400879609
101230,-0.342642962932587,43.2474650879609
101340,-0.343264430761337,43.3032675125365
101450,-0.344921708106995,42.8010376633853
101560,-0.34388592839241,42.9684449371121
101670,-0.343471586704254,43.4148723616877
101770,-0.34388592839241,42.9126344845657
101880,-0.344300240278244,42.5220094845657
101990,-0.343678742647171,42.7452272108389
102100,-0.344507396221161,42.1871949371121
102210,-0.343471586704254,42.4104126633853
102320,-0.34305727481842,42.4662150879609
102430,-0.34305727481842,42.3546102388097
102540,-0.344507396221161,41.7965779650828
102650,-0.343471586704254,42.019795691356
102760,-0.344300240278244,41.9081908422048
102870,-0.342021465301514,42.0198037193267
102980,-0.343471586704254,42.1314165964487
103080,-0.344093084335327,41.9640012947511
103190,-0.343264430761337,42.0198037193267
103300,-0.34305727481842,42.1314085684779
103410,-0.344093084335327,41.8523884176292
103520,-0.343264430761337,42.2988158422048
103630,-0.344300240278244,42.3546182667804
103740,-0.342850118875504,42.7452432667804
103850,-0.34305727481842,42.8568481159316
103960,-0.34305727481842,43.1358682667804
104070,-0.343678742647171,43.1358682667804
104180,-0.344507396221161,43.0800658422048
104290,-0.344300240278244,42.801045691356
104400,-0.342850118875504,42.9684529650828
104500,-0.344507396221161,42.8568481159316
104610,-0.343264430761337,43.191670691356
104720,-0.343678742647171,43.3032835684779
104830,-0.342642962932587,43.9171182667804
104940,-0.343264430761337,44.0287231159316
105050,-0.34388592839241,44.0287231159316
105160,-0.344507396221161,43.8613158422048
105270,-0.343264430761337,44.0287311439023
105380,-0.342228621244431,44.4751665964487
105490,-0.344300240278244,44.3635617472975
105600,-0.344093084335327,44.2519488701755
105710,-0.344300240278244,44.3635537193267
105810,-0.343471586704254,44.1961464455999
105920,-0.344507396221161,44.1403440210243
106030,-0.344093084335327,43.9171262947511
106140,-0.34305727481842,44.0287311439023
106250,-0.342642962932587,44.2519408422048
106360,-0.345128864049912,43.9171262947511
106470,-0.343678742647171,44.0845415964487
106580,-0.344300240278244,43.9171262947511
106690,-0.344093084335327,43.9729287193267
106800,-0.344507396221161,43.8613238701755
106910,-0.343264430761337,44.0287391718731
107020,-0.343471586704254,43.749727048995
107130,-0.344507396221161,43.5823197752682
107230,-0.34388592839241,43.5265093227219
107340,-0.343678742647171,43.6381221998438
107450,-0.343678742647171,43.470714926117
107560,-0.344300240278244,43.2474971998438
107670,-0.344093084335327,42.968477048995
107780,-0.34305727481842,43.1358843227219
107890,-0.342642962932587,43.3590940210243
108000,-0.344093084335327,42.9126665964487
108110,-0.343678742647171,42.8568641718731
108220,-0.342850118875504,43.1358843227219
108330,-0.343471586704254,42.968477048995
108440,-0.344300240278244,42.8010617472975
108540,-0.34388592839241,42.8010617472975
108650,-0.344300240278244,42.9684690210243
108760,-0.34388592839241,42.9126585684779
108870,-0.343264430761337,42.6894488701755
108980,-0.343678742647171,42.9126665964487
109090,-0.344300240278244,42.5220415964487
109200,-0.34388592839241,42.2430214455999
109310,-0.344507396221161,42.0198037193267
109420,-0.343678742647171,41.9081988701755
109530,-0.343678742647171,41.6291867472975
109640,-0.343471586704254,41.9082068981462
109750,-0.344300240278244,41.8524044735706
109860,-0.34388592839241,41.6291867472975
109960,-0.343678742647171,41.5733843227219
110070,-0.344093084335327,41.4617714455999
110180,-0.343678742647171,41.4617714455999
110290,-0.343264430761337,41.7407915964487
110400,-0.34388592839241,41.5733762947511
110510,-0.344300240278244,41.2943561439023
110620,-0.343678742647171,41.1827512947511
110730,-0.343471586704254,41.1269488701755
110840,-0.344921708106995,40.9595415964487
110950,-0.343264430761337,41.0153440210243
111060,-0.343264430761337,41.0153440210243
111170,-0.34388592839241,41.3501585684779
111270,-0.344093084335327,41.3501585684779
111380,-0.344093084335327,41.1269408422048
111490,-0.344093084335327,40.9595255405072
111600,-0.344093084335327,40.8479126633853
111710,-0.34305727481842,40.9595175125365
111820,-0.341814309358597,41.4059449371121
111930,-0.344507396221161,41.5733522108389
112040,-0.342228621244431,41.7965699371121
112150,-0.344093084335327,41.8523723616877
112260,-0.34388592839241,41.9639772108389
112370,-0.342642962932587,42.5778119091414
112480,-0.344093084335327,42.5778119091414
112590,-0.342850118875504,42.6894167582926
112690,-0.344300240278244,42.8010216074438
112800,-0.343678742647171,43.024239333717
112910,-0.344300240278244,43.024239333717
113020,-0.343264430761337,43.024239333717
113130,-0.34305727481842,43.2474570599901
113240,-0.34388592839241,43.0800417582926
113350,-0.343678742647171,42.7452272108389
113460,-0.345543205738068,41.9639772108389
113570,-0.34160715341568,42.7452272108389
113680,-0.34388592839241,42.9126344845657
113790,-0.343678742647171,42.9684449371121
113900,-0.343678742647171,42.8010376633853
114000,-0.343678742647171,42.9126505405072
114110,-0.342642962932587,42.8568481159316
114220,-0.343678742647171,42.6336384176292
114330,-0.344714552164078,42.4104287193267
114440,-0.343471586704254,42.4104287193267
114550,-0.343678742647171,42.6336464455999
114660,-0.343678742647171,42.8010617472975
114770,-0.343678742647171,42.6894568981462
114880,-0.344300240278244,42.5220415964487
114990,-0.34305727481842,42.4104367472975
115100,-0.342850118875504,42.4662391718731
115210,-0.343471586704254,42.2430294735706
115320,-0.344093084335327,42.0198117472975
115420,-0.343264430761337,42.4662391718731
115530,-0.344300240278244,42.3546343227219
115640,-0.34388592839241,42.2430214455999
115750,-0.344093084335327,42.1872190210243
115860,-0.344093084335327,42.2430214455999
115970,-0.344714552164078,41.9640012947511
116080,-0.34305727481842,42.3546262947511
116190,-0.344300240278244,42.1314085684779
116300,-0.344714552164078,41.6849811439023
116410,-0.34305727481842,41.6849811439023
116520,-0.343264430761337,42.0198037193267
116630,-0.344093084335327,41.8523884176292
116730,-0.34243580698967,42.3546182667804
116840,-0.343678742647171,41.9081908422048
116950,-0.342228621244431,42.2430134176292
117060,-0.343471586704254,42.4104287193267
117170,-0.344300240278244,42.1314085684779
117280,-0.343264430761337,42.0756061439023
117390,-0.343264430761337,42.2988238701755
117500,-0.342850118875504,42.4104287193267
117610,-0.343678742647171,42.5778440210243
117720,-0.344300240278244,42.1872190210243
117830,-0.34305727481842,42.1872190210243
117940,-0.343471586704254,42.0756141718731
118050,-0.344093084335327,41.9640012947511
118150,-0.34388592839241,42.1314085684779
118260,-0.343678742647171,42.2988238701755
118370,-0.344300240278244,41.9081988701755
118480,-0.342642962932587,42.4104287193267
118590,-0.343678742647171,42.2988238701755
118700,-0.34305727481842,42.4662311439023
118810,-0.344093084335327,42.0756061439023
118920,-0.34243580698967,42.2988158422048
119030,-0.344300240278244,42.1872109930536
119140,-0.34305727481842,42.5778359930536
119250,-0.345543205738068,41.9639932667804
119360,-0.344300240278244,41.4059529650828
119460,-0.344714552164078,41.2943481159316
119570,-0.344921708106995,41.0711384176292
119680,-0.344093084335327,41.1269408422048
119790,-0.342642962932587,41.3501505405072
119900,-0.343678742647171,41.5733682667804
120010,-0.34388592839241,41.629170691356
120120,-0.343264430761337,41.5733682667804
120230,-0.344714552164078,41.0153359930536
120340,-0.34388592839241,41.3501505405072
120450,-0.344300240278244,41.1827352388097
120560,-0.34388592839241,41.2943400879609
120670,-0.343678742647171,41.4059529650828
120780,-0.343264430761337,41.7407755405072
120880,-0.343678742647171,41.629170691356
120990,-0.344300240278244,41.4059529650828
121100,-0.343264430761337,41.7407755405072
121210,-0.34388592839241,41.7407755405072
121320,-0.344507396221161,41.517557814234
121430,-0.343678742647171,41.517557814234
121540,-0.343264430761337,41.7965779650828
121650,-0.344714552164078,41.629170691356
121760,-0.34305727481842,41.629170691356
121870,-0.343678742647171,41.3501585684779
121980,-0.344300240278244,41.2943561439023
122090,-0.344300240278244,41.1269408422048
122190,-0.343678742647171,40.9037311439023
122300,-0.343471586704254,40.9037311439023
122410,-0.343678742647171,41.0711464455999
122520,-0.343471586704254,41.1827593227219
122630,-0.344300240278244,41.1827593227219
122740,-0.343678742647171,41.2385697752682
122850,-0.343471586704254,41.1827673506926
122960,-0.344093084335327,41.0711544735706
123070,-0.342850118875504,41.4617794735706
123180,-0.344714552164078,41.2385697752682
123290,-0.343264430761337,41.5733923506926
123400,-0.34305727481842,41.7407996244194
123510,-0.344507396221161,41.5175818981462
123610,-0.34388592839241,41.4059690210243
123720,-0.343471586704254,41.6291867472975
123830,-0.344093084335327,41.5733843227219
123940,-0.343264430761337,41.6849891718731
124050,-0.343678742647171,41.796602048995
124160,-0.34305727481842,41.9640093227219
124270,-0.343678742647171,41.8524044735706
124380,-0.343264430761337,42.0198197752682
124490,-0.344507396221161,41.9640173506926
124600,-0.342850118875504,42.187227048995
124710,-0.344300240278244,41.9640093227219
124820,-0.342850118875504,42.5220415964487
124920,-0.343678742647171,42.4104367472975
125030,-0.344921708106995,41.9640093227219
125140,-0.344714552164078,41.7407996244194
125250,-0.343471586704254,41.908214926117
125360,-0.34388592839241,41.9640173506926
125470,-0.34305727481842,42.2430375015414
125580,-0.34305727481842,42.5220576523902
125690,-0.343264430761337,42.4662552278145
125800,-0.343471586704254,42.0198278032389
125910,-0.34388592839241,42.1872350769658
126020,-0.344300240278244,41.6291947752682
126130,-0.344300240278244,41.5733923506926
126240,-0.344093084335327,41.517589926117
126340,-0.342642962932587,41.517589926117
126450,-0.344714552164078,41.3501826523902
126560,-0.343678742647171,41.1269729540877
126670,-0.34388592839241,41.2385778032389
126780,-0.343264430761337,41.3501826523902
126890,-0.344093084335327,41.4059850769658
127000,-0.344093084335327,41.1827673506926
127110,-0.34388592839241,40.9595496244194
127220,-0.343264430761337,41.126964926117
127330,-0.343264430761337,41.2385697752682
127440,-0.343471586704254,41.7966100769658
127550,-0.344507396221161,41.0153600769658
127650,-0.344714552164078,40.7921503786633
127760,-0.344507396221161,40.5689326523902
127870,-0.344300240278244,40.4015173506926
127980,-0.344093084335327,40.2899044735706
128090,-0.342850118875504,40.234102048995
128200,-0.343264430761337,40.3457068981462
128310,-0.344093084335327,40.5131141718731
128420,-0.343678742647171,40.4573117472975
128530,-0.34305727481842,40.6247190210243
128640,-0.345128864049912,40.2340940210243
128750,-0.34388592839241,40.1782835684779
128860,-0.342642962932587,40.6247109930536
128970,-0.344507396221161,40.2340859930536
129070,-0.343264430761337,40.1224811439023
129180,-0.34388592839241,40.0108682667804
129290,-0.343471586704254,40.1782835684779
129400,-0.34388592839241,40.0108682667804
129510,-0.344921708106995,39.8434609930536
129620,-0.343471586704254,39.9550738701755
129730,-0.34388592839241,40.0108762947511
129840,-0.34388592839241,40.0666787193267
129950,-0.34305727481842,40.5131061439023
130060,-0.344300240278244,40.1782835684779
130170,-0.344921708106995,40.0108762947511
130280,-0.344300240278244,40.1224811439023
130380,-0.344921708106995,39.6202512947511
130490,-0.34388592839241,39.4528359930536
130600,-0.344093084335327,39.4528359930536
130710,-0.343678742647171,39.1180214455999
130820,-0.344714552164078,38.8390012947511
130930,-0.344507396221161,38.2251585684779
131040,-0.34305727481842,38.3367634176292
131150,-0.34305727481842,38.6715859930536
131260,-0.342642962932587,38.8389932667804
131370,-0.343264430761337,38.8389932667804
131480,-0.344507396221161,38.3925658422048
131590,-0.34388592839241,38.3367553896584
131700,-0.34305727481842,38.6715779650828
131800,-0.344507396221161,38.2809529650828
131910,-0.34388592839241,38.1693400879609
132020,-0.343264430761337,38.392557814234
132130,-0.343678742647171,38.4483682667804
132240,-0.34388592839241,38.392557814234
132350,-0.34305727481842,38.7273803896584
132460,-0.344507396221161,38.2251505405072
132570,-0.344300240278244,38.0577352388097
132680,-0.34388592839241,37.8345175125365
132790,-0.344714552164078,37.6671102388097
132900,-0.342850118875504,37.5555053896584
133010,-0.342642962932587,38.001932814234
133110,-0.344300240278244,37.6671102388097
133220,-0.343471586704254,38.2251505405072
133330,-0.34305727481842,38.5599731159316
133440,-0.343471586704254,38.894795691356
133550,-0.34388592839241,39.173807814234
133660,-0.34305727481842,39.4528279650828
133770,-0.34305727481842,39.3412231159316
133880,-0.34388592839241,39.2854126633853
133990,-0.343264430761337,39.4528279650828
134100,-0.344300240278244,39.173807814234
134210,-0.34243580698967,39.7876425125365
134320,-0.343264430761337,39.955057814234
134430,-0.34305727481842,40.2898803896584
134530,-0.343264430761337,40.457295691356
134640,-0.344093084335327,40.345682814234
134750,-0.344714552164078,39.955057814234
134860,-0.343471586704254,40.0108602388097
134970,-0.344300240278244,40.0108602388097
135080,-0.343264430761337,40.0108602388097
135190,-0.343471586704254,40.1224731159316
135300,-0.34305727481842,40.5130981159316
135410,-0.344921708106995,40.1782755405072
135520,-0.34305727481842,40.2340779650828
135630,-0.343678742647171,40.5130981159316
135740,-0.34305727481842,40.5130981159316
135840,-0.343678742647171,40.5130981159316
135950,-0.342228621244431,41.0711384176292
136060,-0.344300240278244,41.0711384176292
136170,-0.34388592839241,41.0153279650828
136280,-0.34305727481842,41.126932814234
136390,-0.343264430761337,41.2385376633853
136500,-0.342850118875504,41.4059449371121
136610,-0.343264430761337,41.6849650879609
136720,-0.34305727481842,41.8523723616877
136830,-0.343264430761337,41.9081747862633
136940,-0.343471586704254,42.0755900879609
137050,-0.344507396221161,41.6291626633853
137160,-0.34305727481842,42.0755900879609
137260,-0.34388592839241,41.9081747862633
137370,-0.345543205738068,41.2385296354145
137480,-0.343471586704254,41.5175497862633
137590,-0.343678742647171,41.5733602388097
137700,-0.34305727481842,41.6849650879609
137810,-0.343678742647171,41.7965779650828
137920,-0.343678742647171,41.6849731159316
138030,-0.344093084335327,41.5733602388097
138140,-0.344300240278244,41.2385376633853
138250,-0.344300240278244,41.0711223616877
138360,-0.343678742647171,40.9595175125365
138470,-0.344714552164078,40.9037150879609
138570,-0.342850118875504,40.9037150879609
138680,-0.343264430761337,41.1827352388097
138790,-0.34388592839241,40.9037150879609
138900,-0.343264430761337,41.0153199371121
139010,-0.343471586704254,41.4059449371121
139120,-0.343471586704254,41.7407675125365
139230,-0.34388592839241,41.6291546354145
139340,-0.343678742647171,41.6849650879609
139450,-0.34243580698967,41.8523723616877
139560,-0.343471586704254,41.7407675125365
139670,-0.344300240278244,41.4617473616877
139780,-0.343678742647171,41.4059449371121
139890,-0.344714552164078,41.1827352388097
139990,-0.344093084335327,41.2385376633853
140100,-0.344093084335327,41.2943400879609
140210,-0.342642962932587,41.6849650879609
140320,-0.345128864049912,41.0153279650828
140430,-0.344714552164078,41.0153279650828
140540,-0.343264430761337,41.126932814234
140650,-0.342850118875504,41.4059529650828
140760,-0.344921708106995,40.9595255405072
140870,-0.34305727481842,41.238545691356
140980,-0.342850118875504,41.5733682667804
141090,-0.342850118875504,41.8523884176292
141200,-0.344093084335327,41.629170691356
141300,-0.344093084335327,41.4059529650828
141410,-0.343678742647171,41.3501505405072
141520,-0.342850118875504,41.7965779650828
141630,-0.344300240278244,41.908182814234
141740,-0.343264430761337,42.2430053896584
141850,-0.34305727481842,42.5778279650828
141960,-0.344507396221161,42.4662231159316
142070,-0.343678742647171,42.2430134176292
142180,-0.34305727481842,42.2988158422048
142290,-0.342642962932587,42.6894408422048
142400,-0.34388592839241,42.6336303896584
142510,-0.342850118875504,42.689432814234
142620,-0.344093084335327,42.9684449371121
142720,-0.343678742647171,43.0242553896584
142830,-0.344714552164078,42.4662231159316
142940,-0.344714552164078,42.410420691356
143050,-0.343678742647171,42.2988158422048
143160,-0.34388592839241,42.2988158422048
143270,-0.343264430761337,42.3546182667804
143380,-0.343471586704254,42.4662311439023
143490,-0.343471586704254,42.8568561439023
143600,-0.344507396221161,42.5778359930536
143710,-0.342850118875504,42.8568561439023
143820,-0.34305727481842,43.0800738701755
143930,-0.344921708106995,42.5778440210243
144030,-0.34388592839241,42.6894488701755
144140,-0.342642962932587,43.3032835684779
144250,-0.344300240278244,43.3032835684779
144360,-0.343678742647171,43.6381061439023
144470,-0.344093084335327,43.5823037193267
144580,-0.344300240278244,43.5265012947511
144690,-0.343264430761337,43.6381061439023
144800,-0.344300240278244,43.7497109930536
144910,-0.342850118875504,44.1961384176292
145020,-0.342850118875504,44.2519408422048
145130,-0.343264430761337,44.1961384176292
145240,-0.344093084335327,43.8055134176292
145350,-0.34243580698967,44.0287231159316
145450,-0.34305727481842,44.4193481159316
145560,-0.344507396221161,44.2519408422048
145670,-0.344093084335327,43.972920691356
145780,-0.344507396221161,43.972920691356
145890,-0.344300240278244,43.8613158422048
146000,-0.343471586704254,43.8055134176292
146110,-0.344507396221161,43.582295691356
146220,-0.343678742647171,43.6381061439023
146330,-0.34388592839241,43.4148884176292
146440,-0.343264430761337,43.7497109930536
146550,-0.342850118875504,44.1403359930536
146660,-0.345336049795151,43.7497109930536
146760,-0.344300240278244,43.8613158422048
146870,-0.34305727481842,43.8055134176292
146980,-0.34388592839241,43.4706908422048
147090,-0.342850118875504,43.8613158422048
147200,-0.344300240278244,43.6380981159316
147310,-0.344507396221161,43.2474731159316
147420,-0.344714552164078,42.9126505405072
147530,-0.343471586704254,43.0242634176292
147640,-0.342228621244431,43.2474811439023
147750,-0.342642962932587,43.3590859930536
147860,-0.34305727481842,43.5823037193267
147970,-0.343264430761337,43.5823037193267
148080,-0.343471586704254,43.8055214455999
148180,-0.342228621244431,43.8613318981462
148290,-0.34388592839241,43.6939165964487
148400,-0.34388592839241,43.4706988701755
148510,-0.343471586704254,43.4148964455999
148620,-0.344300240278244,43.3590940210243
148730,-0.343471586704254,43.6939165964487
148840,-0.342850118875504,43.8613238701755
148950,-0.343264430761337,44.1403440210243
149060,-0.34388592839241,43.9729287193267
149170,-0.344300240278244,43.7497109930536
149280,-0.343264430761337,43.6939085684779
149390,-0.343471586704254,44.0845335684779
149490,-0.344300240278244,43.7497109930536
149600,-0.342850118875504,43.972920691356
149710,-0.34388592839241,43.7497029650828
149820,-0.34388592839241,43.6938925125365
149930,-0.344921708106995,42.9684449371121
150040,-0.342850118875504,43.3590699371121
150150,-0.344714552164078,43.1358602388097
150260,-0.342642962932587,43.2474650879609
150370,-0.343471586704254,43.1916626633853
150480,-0.34388592839241,42.9126425125365
150590,-0.343471586704254,42.8568400879609
150700,-0.343471586704254,42.7452352388097
150810,-0.343264430761337,42.7452352388097
150910,-0.344714552164078,42.4104126633853
151020,-0.345128864049912,42.2430053896584
151130,-0.344714552164078,41.7965779650828
151240,-0.343471586704254,41.9081908422048
151350,-0.34305727481842,42.5778359930536
151460,-0.343678742647171,42.5220335684779
151570,-0.344300240278244,42.3546182667804
151680,-0.34388592839241,42.1314005405072
151790,-0.344093084335327,42.0197876633853
151900,-0.34305727481842,42.1871949371121
152010,-0.344093084335327,42.1871949371121
152120,-0.34305727481842,42.5220175125365
152220,-0.34388592839241,42.6336223616877
152330,-0.344093084335327,42.5220094845657
152440,-0.34388592839241,42.7452191828682
152550,-0.34388592839241,42.4661990320194
152660,-0.343471586704254,42.4103966074438
152770,-0.343678742647171,42.4662070599901
152880,-0.34305727481842,42.5220094845657
152990,-0.343264430761337,42.5778119091414
153100,-0.343678742647171,42.5220094845657
153210,-0.342850118875504,42.8010296354145
153320,-0.342850118875504,43.024239333717
153430,-0.344921708106995,42.3546022108389
153540,-0.344507396221161,42.0755820599901
153640,-0.344300240278244,42.0755820599901
153750,-0.344507396221161,41.852364333717
153860,-0.342850118875504,42.3545941828682
153970,-0.343471586704254,42.5220094845657
154080,-0.344300240278244,42.4662070599901
154190,-0.344300240278244,42.0197796354145
154300,-0.34305727481842,42.5778119091414
154410,-0.343264430761337,42.9684369091414
154520,-0.342850118875504,43.0800417582926
154630,-0.343471586704254,42.9126344845657
154740,-0.344300240278244,43.0800417582926
154850,-0.342228621244431,43.3032594845657
154950,-0.34305727481842,43.2474570599901
155060,-0.343471586704254,43.0800497862633
155170,-0.344921708106995,42.8568400879609
155280,-0.343678742647171,42.9684529650828
155390,-0.344093084335327,42.8568400879609
155500,-0.34388592839241,42.5778199371121
155610,-0.343471586704254,42.8010376633853
155720,-0.344093084335327,42.5778199371121
155830,-0.343678742647171,42.4104126633853
155940,-0.34305727481842,42.8010376633853
156050,-0.343678742647171,42.8010376633853
156160,-0.344300240278244,42.4662150879609
156270,-0.343264430761337,42.298807814234
156370,-0.343264430761337,42.4662231159316
156480,-0.344093084335327,42.1314005405072
156590,-0.344093084335327,42.1314005405072
156700,-0.344300240278244,41.9639852388097
156810,-0.344507396221161,42.0197876633853
156920,-0.34388592839241,42.2429973616877
157030,-0.342850118875504,42.4662070599901
157140,-0.34388592839241,42.4662070599901
157250,-0.343471586704254,42.4104046354145
157360,-0.34305727481842,42.5220094845657
157470,-0.34243580698967,42.8010216074438
157580,-0.342642962932587,43.303251456595
157680,-0.343264430761337,43.1916466074438
157790,-0.344300240278244,42.8568240320194
157900,-0.343678742647171,43.1916466074438
158010,-0.345128864049912,42.8568320599901
158120,-0.343264430761337,42.6894247862633
158230,-0.34388592839241,42.8010296354145
158340,-0.343678742647171,42.8010296354145
158450,-0.343264430761337,43.0242473616877
158560,-0.343678742647171,43.1916626633853
158670,-0.343264430761337,43.1916626633853
158780,-0.343471586704254,43.4148803896584
158890,-0.344093084335327,43.080057814234
159000,-0.344300240278244,42.689432814234
159100,-0.342850118875504,42.8010376633853
159210,-0.344714552164078,42.6336303896584
159320,-0.343678742647171,42.2988158422048
159430,-0.343264430761337,42.2430134176292
159540,-0.342850118875504,42.6894408422048
159650,-0.344093084335327,42.6894408422048
159760,-0.344714552164078,42.6336384176292
159870,-0.344093084335327,42.6894408422048
159980,-0.344093084335327,42.5220255405072
160090,-0.34388592839241,42.689432814234
160200,-0.345128864049912,42.298807814234
160310,-0.342850118875504,42.5778279650828
160410,-0.343471586704254,42.5220255405072
160520,-0.34243580698967,42.6336303896584
160630,-0.343264430761337,43.191670691356
160740,-0.34305727481842,43.5264932667804
160850,-0.34388592839241,43.3032755405072
160960,-0.344093084335327,43.2474731159316
161070,-0.343471586704254,43.0800658422048
161180,-0.34388592839241,43.191670691356
161290,-0.344507396221161,43.191670691356
161400,-0.343264430761337,43.582295691356
161510,-0.343264430761337,43.6380981159316
161620,-0.34388592839241,43.1916626633853
161730,-0.344093084335327,42.8010376633853
161830,-0.343264430761337,42.7452352388097
161940,-0.34305727481842,42.8010376633853
162050,-0.345750361680985,42.1871949371121
162160,-0.344093084335327,41.6849570599901
162270,-0.344300240278244,41.5733522108389
162380,-0.344300240278244,41.4617473616877
162490,-0.344300240278244,41.2385296354145
162600,-0.344714552164078,41.1269247862633
162710,-0.34160715341568,41.6291546354145
162820,-0.343471586704254,41.4617473616877
162930,-0.343471586704254,41.4059449371121
163040,-0.344507396221161,41.2385376633853
163140,-0.343678742647171,41.4059529650828
163250,-0.34388592839241,41.2385376633853
163360,-0.343678742647171,41.1827352388097
163470,-0.34305727481842,41.517557814234
163580,-0.344093084335327,41.1827352388097
163690,-0.344507396221161,41.0153279650828
163800,-0.343264430761337,41.1827432667804
163910,-0.344714552164078,41.238545691356
164020,-0.342850118875504,41.238545691356
164130,-0.343471586704254,41.5733682667804
164240,-0.34305727481842,41.4617634176292
164350,-0.345128864049912,41.0153359930536
164460,-0.343678742647171,41.0711464455999
164560,-0.34243580698967,41.3501585684779
164670,-0.343264430761337,41.4059609930536
164780,-0.343264430761337,41.4059609930536
164890,-0.342850118875504,41.9081908422048
165000,-0.343678742647171,42.2988158422048
165110,-0.342850118875504,42.801045691356
165220,-0.344093084335327,42.6336303896584
165330,-0.345128864049912,42.0755981159316
165440,-0.343678742647171,42.0755981159316
165550,-0.342850118875504,42.4662231159316
165660,-0.343264430761337,42.6336384176292
165770,-0.34388592839241,42.6894408422048
165870,-0.342850118875504,42.7452432667804
165980,-0.343678742647171,42.8568561439023
166090,-0.343264430761337,42.8010537193267
166200,-0.343678742647171,42.8568641718731
166310,-0.344093084335327,42.8568641718731
166420,-0.343678742647171,42.9126746244194
166530,-0.342850118875504,43.1916947752682
166640,-0.34305727481842,43.3032996244194
166750,-0.343678742647171,43.3032996244194
166860,-0.342850118875504,43.359102048995
166970,-0.34388592839241,43.1916867472975
167080,-0.343471586704254,43.2474891718731
167190,-0.344714552164078,42.7452593227219
167290,-0.34388592839241,42.4662391718731
167400,-0.342850118875504,43.0242714455999
167510,-0.342850118875504,43.4706988701755
167620,-0.343264430761337,43.7497190210243
167730,-0.343471586704254,44.0287391718731
167840,-0.344714552164078,43.5265093227219
167950,-0.34305727481842,43.6381141718731
168060,-0.344507396221161,43.5823117472975
168170,-0.343678742647171,43.749727048995
168280,-0.34305727481842,43.749727048995
168390,-0.344093084335327,43.5265093227219
168500,-0.344300240278244,43.1358843227219
168600,-0.343264430761337,43.1916867472975
168710,-0.34388592839241,43.3032915964487
168820,-0.34305727481842,43.0800738701755
168930,-0.344714552164078,42.6336464455999
169040,-0.34305727481842,42.7452512947511
169150,-0.342850118875504,43.3032835684779
169260,-0.344093084335327,43.191670691356
169370,-0.346164673566818,42.6336384176292
169480,-0.343678742647171,42.6894488701755
169590,-0.342850118875504,42.8568561439023
169700,-0.343471586704254,43.0242714455999
169810,-0.344921708106995,42.6894488701755
169920,-0.343471586704254,42.5778440210243
170020,-0.343264430761337,42.6894488701755
170130,-0.343264430761337,42.9684690210243
170240,-0.343678742647171,42.8568641718731
170350,-0.343264430761337,42.8568641718731
170460,-0.342642962932587,43.2474891718731
170570,-0.343471586704254,43.4149044735706
170680,-0.344093084335327,43.4707068981462
170790,-0.344300240278244,43.5265093227219
170900,-0.344507396221161,43.359102048995
171010,-0.343678742647171,43.1358923506926
171120,-0.34388592839241,43.1358923506926
171230,-0.343264430761337,43.1916947752682
171340,-0.343678742647171,43.0242875015414
171440,-0.343264430761337,42.8010778032389
171550,-0.343471586704254,42.5778681049365
171660,-0.344714552164078,42.1872431049365
171770,-0.343264430761337,42.4662632557853
171880,-0.343471586704254,42.5220656803609
171990,-0.343471586704254,42.9684931049365
172100,-0.343471586704254,42.9126906803609
172210,-0.34388592839241,42.9126906803609
172320,-0.344507396221161,42.6894729540877
172430,-0.34388592839241,42.5220576523902
172540,-0.344714552164078,42.2430375015414
172650,-0.343471586704254,42.1872350769658
172750,-0.343471586704254,42.1872350769658
172860,-0.34305727481842,42.4662552278145
172970,-0.344507396221161,42.4104528032389
173080,-0.343678742647171,42.1872431049365
173190,-0.342850118875504,42.6894729540877
173300,-0.34388592839241,42.6336625015414
173410,-0.344921708106995,42.1872350769658
173520,-0.343264430761337,42.0756302278145
173630,-0.34388592839241,42.1314326523902
173740,-0.34305727481842,42.5778600769658
173850,-0.344300240278244,42.5220576523902
173960,-0.343264430761337,42.7452753786633
174070,-0.343471586704254,42.8568882557853
174170,-0.344507396221161,43.0242955295121
174280,-0.344300240278244,42.6336705295121
174390,-0.344921708106995,42.2430455295121
174500,-0.343678742647171,41.9082309820584
174610,-0.34388592839241,41.7408156803609
174720,-0.344300240278244,41.4059931049365
174830,-0.34305727481842,41.6292108312097
174940,-0.344507396221161,41.5176059820584
175050,-0.343678742647171,41.4618035574828
175160,-0.343471586704254,41.5734164346048
175270,-0.344300240278244,41.6292188591804
175380,-0.344921708106995,41.1827914346048
175480,-0.342850118875504,41.294396283756
175590,-0.343471586704254,41.406009160878
175700,-0.343678742647171,41.5176220379999
175810,-0.343471586704254,41.4618196134243
175920,-0.343264430761337,41.4060171888487
176030,-0.34388592839241,41.9082470379999
176140,-0.343471586704254,42.0756623396975
176250,-0.344300240278244,42.0756623396975
176360,-0.34388592839241,42.1872671888487
176470,-0.34388592839241,42.2988720379999
176580,-0.342850118875504,42.8011018871511
176690,-0.34388592839241,42.187259160878
176800,-0.344714552164078,41.8524365854536
176900,-0.342850118875504,42.0198438591804
177010,-0.343678742647171,42.2430615854536
177120,-0.34388592839241,42.1872511329072
177230,-0.341399997472763,42.856896283756
177340,-0.344093084335327,42.7452834066341
177450,-0.344714552164078,42.2988559820584
177560,-0.343471586704254,42.466271283756
177670,-0.343678742647171,42.6894890100292
177780,-0.342642962932587,42.856896283756
177890,-0.34388592839241,43.0801059820584
178000,-0.343678742647171,42.856896283756
178110,-0.343264430761337,42.9126987083316
178210,-0.344507396221161,42.5220737083316
178320,-0.343264430761337,43.0243035574828
178430,-0.343264430761337,43.1359084066341
178540,-0.34243580698967,43.1359084066341
178650,-0.344093084335327,42.9126906803609
178760,-0.343471586704254,42.8568882557853
178870,-0.343471586704254,42.6894809820584
178980,-0.344300240278244,42.5220656803609
179090,-0.34388592839241,42.2430455295121
179200,-0.34243580698967,42.6894729540877
179310,-0.342850118875504,43.3033076523902
179420,-0.344507396221161,43.080089926117
179530,-0.343264430761337,42.9684850769658
179630,-0.344300240278244,42.689464926117
179740,-0.342850118875504,42.9684850769658
179850,-0.344507396221161,42.5220576523902
179960,-0.343264430761337,42.6336625015414
180070,-0.342642962932587,42.8010697752682
180180,-0.343678742647171,42.8010697752682
180290,-0.343471586704254,42.9684850769658
180400,-0.343678742647171,42.9684850769658
180510,-0.344714552164078,42.4662552278145
180620,-0.343678742647171,42.2988479540877
180730,-0.34305727481842,42.4662552278145
180840,-0.344300240278244,42.0756302278145
180940,-0.343264430761337,42.2430455295121
181050,-0.343264430761337,42.2988479540877
181160,-0.343264430761337,42.6894729540877
181270,-0.34305727481842,42.9126906803609
181380,-0.344300240278244,42.5220656803609
181490,-0.344300240278244,42.1314406803609
181600,-0.343678742647171,42.0198358312097
181710,-0.344300240278244,41.7966181049365
181820,-0.344714552164078,41.7966181049365
181930,-0.342021465301514,42.0756382557853
182040,-0.344093084335327,42.1872431049365
182150,-0.344714552164078,41.9082229540877
182260,-0.344300240278244,41.5734003786633
182360,-0.343471586704254,41.7408156803609
182470,-0.34243580698967,42.2430455295121
182580,-0.344921708106995,41.7966181049365
182690,-0.342850118875504,42.0756382557853
182800,-0.343678742647171,41.9082309820584
182910,-0.344093084335327,42.0756382557853
183020,-0.343471586704254,41.9640334066341
183130,-0.345543205738068,41.2385858312097
183240,-0.343264430761337,41.4618035574828
183350,-0.344093084335327,42.0198358312097
183460,-0.343471586704254,42.0756382557853
183570,-0.344093084335327,41.7408156803609
183670,-0.343471586704254,41.7408156803609
183780,-0.342642962932587,42.3546503786633
183890,-0.34388592839241,42.2430375015414
184000,-0.343471586704254,42.1872350769658
184110,-0.34243580698967,42.4104447752682
184220,-0.34243580698967,42.7452593227219
184330,-0.342642962932587,42.9126665964487
184440,-0.344921708106995,42.2988318981462
184550,-0.343264430761337,42.3546343227219
184660,-0.34305727481842,42.6336544735706
184770,-0.34243580698967,43.1358843227219
184880,-0.344093084335327,43.2474891718731
184990,-0.343678742647171,43.2474891718731
185090,-0.344093084335327,43.1916867472975
185200,-0.34305727481842,43.2474891718731
185310,-0.342850118875504,43.4706988701755
185420,-0.343264430761337,43.4706988701755
185530,-0.344093084335327,43.3032835684779
185640,-0.343264430761337,43.6939085684779
185750,-0.34305727481842,43.7497109930536
185860,-0.342850118875504,43.9171182667804
185970,-0.342850118875504,44.0845255405072
186080,-0.342850118875504,44.251932814234
186190,-0.343471586704254,44.363545691356
186300,-0.343678742647171,44.5867634176292
186400,-0.344300240278244,44.4751585684779
186510,-0.344300240278244,44.5867634176292
186620,-0.343678742647171,44.5309609930536
186730,-0.343264430761337,44.5867634176292
186840,-0.343678742647171,44.4193561439023
186950,-0.344507396221161,44.4193561439023
187060,-0.344093084335327,44.3077432667804
187170,-0.34305727481842,44.2519408422048
187280,-0.34305727481842,44.4751585684779
187390,-0.34388592839241,44.754170691356
187500,-0.34388592839241,44.5867553896584
187610,-0.343471586704254,44.6983682667804
187720,-0.343264430761337,44.6425658422048
187820,-0.344093084335327,44.6983682667804
187930,-0.343471586704254,44.6425658422048
188040,-0.343264430761337,44.6983682667804
188150,-0.343264430761337,45.0331908422048
188260,-0.34388592839241,45.144795691356
188370,-0.34388592839241,45.423807814234
188480,-0.34388592839241,45.3679973616877
188590,-0.343264430761337,45.5354126633853
188700,-0.34388592839241,45.6470175125365
188810,-0.342642962932587,45.7586223616877
188920,-0.343471586704254,46.0376425125365
189030,-0.342850118875504,46.2608522108389
189130,-0.34243580698967,46.539864333717
189240,-0.34388592839241,46.6514691828682
189350,-0.34305727481842,47.1536990320194
189460,-0.34305727481842,47.0978966074438
189570,-0.34243580698967,47.3769087303218
189680,-0.344093084335327,47.2652958531999
189790,-0.34305727481842,47.3769007023511
189900,-0.343471586704254,47.3210982777755
190010,-0.343264430761337,47.4885135794731
190120,-0.343264430761337,47.5443160040487
190230,-0.343264430761337,47.8233361548974
190340,-0.342642962932587,48.1581587303218
190450,-0.342642962932587,48.4929813057462
190550,-0.344093084335327,48.1581587303218
190660,-0.342850118875504,48.4371788811706
190770,-0.343471586704254,48.772001456595
190880,-0.343678742647171,48.5487917582926
190990,-0.344714552164078,48.2697716074438
191100,-0.344714552164078,48.0465619091414
191210,-0.344507396221161,47.2095094845657
191320,-0.345128864049912,46.9304973616877
191430,-0.344093084335327,47.0979046354145
191540,-0.342642962932587,47.321114333717
191650,-0.344507396221161,47.0978966074438
191760,-0.344093084335327,46.7072716074438
191860,-0.344300240278244,46.5956667582926
191970,-0.34305727481842,46.7630740320194
192080,-0.343471586704254,46.7072716074438
192190,-0.344093084335327,46.818876456595
192300,-0.342642962932587,46.9862837303218
192410,-0.344300240278244,46.7072635794731
192520,-0.34305727481842,46.5398563057462
192630,-0.343678742647171,46.6514691828682
192740,-0.342642962932587,46.8746788811706
192850,-0.344714552164078,46.5398563057462
192960,-0.343471586704254,46.7630740320194
193070,-0.342850118875504,47.0420941828682
193180,-0.34305727481842,46.8746869091414
193280,-0.344507396221161,46.4282594845657
193390,-0.343678742647171,46.6514772108389
193500,-0.343471586704254,46.5956747862633
193610,-0.34388592839241,46.7072796354145
193720,-0.344093084335327,46.3724570599901
193830,-0.342228621244431,46.9862997862633
193940,-0.344921708106995,46.5398723616877
194050,-0.34305727481842,46.4282675125365
194160,-0.343471586704254,46.4840699371121
194270,-0.343264430761337,46.5398723616877
194380,-0.343678742647171,46.5398723616877
194490,-0.342642962932587,47.0979046354145
194590,-0.343678742647171,47.0979046354145
194700,-0.343471586704254,46.9862997862633
194810,-0.344093084335327,47.0421022108389
194920,-0.344093084335327,46.8188844845657
195030,-0.343678742647171,46.7072796354145
195140,-0.344093084335327,46.4840619091414
195250,-0.34388592839241,46.2608441828682
195360,-0.342642962932587,46.7072716074438
195470,-0.343471586704254,46.930489333717
195580,-0.343678742647171,46.930489333717
195690,-0.34388592839241,47.0420941828682
195800,-0.343471586704254,47.3769167582926
195910,-0.343471586704254,46.9862917582926
196010,-0.344300240278244,46.930489333717
196120,-0.344921708106995,46.8746869091414
196230,-0.344507396221161,46.8188844845657
196340,-0.343678742647171,46.7630820599901
196450,-0.344093084335327,46.3166546354145
196560,-0.343264430761337,46.7630820599901
196670,-0.343264430761337,46.6514772108389
196780,-0.34243580698967,46.9862917582926
196890,-0.344300240278244,46.930489333717
197000,-0.344507396221161,46.6514691828682
197110,-0.343678742647171,47.1537070599901
197220,-0.34388592839241,46.9862917582926
197320,-0.344714552164078,46.8188844845657
197430,-0.34388592839241,46.7072716074438
197540,-0.343471586704254,46.8746869091414
197650,-0.343471586704254,46.8746869091414
197760,-0.345543205738068,46.0934369091414
197870,-0.342850118875504,46.3724570599901
197980,-0.34388592839241,46.2608441828682
198090,-0.342642962932587,46.2050417582926
198200,-0.344507396221161,45.6470094845657
198310,-0.344714552164078,45.0889772108389
198420,-0.344093084335327,45.3121869091414
198530,-0.344300240278244,45.0331667582926
198640,-0.343678742647171,44.8657594845657
198740,-0.34305727481842,44.6983522108389
198850,-0.34388592839241,44.7541546354145
198960,-0.34305727481842,44.9215619091414
199070,-0.344093084335327,44.9215619091414
199180,-0.344507396221161,44.5309369091414
199290,-0.343264430761337,44.4193320599901
199400,-0.344093084335327,44.196114333717
199510,-0.344507396221161,44.0845094845657
199620,-0.343678742647171,43.9729046354145
199730,-0.344093084335327,43.6938844845657
199840,-0.34305727481842,43.6380820599901
199950,-0.343678742647171,43.4148723616877
200050,-0.34305727481842,43.3590699371121
200160,-0.343678742647171,43.3032675125365
200270,-0.34388592839241,43.2474570599901
200380,-0.344300240278244,43.2474570599901
200490,-0.34243580698967,43.7496869091414
200600,-0.34388592839241,43.693876456595
200710,-0.343264430761337,43.693876456595
200820,-0.342642962932587,43.9728885794731
200930,-0.343471586704254,44.2519087303218
201040,-0.344714552164078,44.084501456595
201150,-0.34388592839241,43.8612837303218
201260,-0.343471586704254,43.7496788811706
201370,-0.342850118875504,44.0286990320194
201470,-0.344300240278244,43.9170941828682
201580,-0.344507396221161,43.6380740320194
201690,-0.343471586704254,43.5822716074438
201800,-0.34388592839241,43.6380740320194
201910,-0.344093084335327,43.4706587303218
202020,-0.34388592839241,43.3032434286243
202130,-0.343471586704254,43.2474410040487
202240,-0.344093084335327,43.1916385794731
202350,-0.344507396221161,43.0242313057462
202460,-0.343471586704254,43.1358441828682
202570,-0.344093084335327,42.912626456595
202680,-0.343471586704254,43.024239333717
202780,-0.342850118875504,42.9684369091414
202890,-0.34243580698967,43.2474490320194
203000,-0.342850118875504,43.2474490320194
203110,-0.343471586704254,42.9684369091414
203220,-0.34388592839241,42.9684369091414
203330,-0.344921708106995,42.4662070599901
203440,-0.343471586704254,42.3546022108389
203550,-0.343678742647171,42.0197876633853
203660,-0.342850118875504,42.3546102388097
203770,-0.343678742647171,42.1872029650828
203880,-0.344921708106995,41.7965779650828
203990,-0.344507396221161,41.4617553896584
204100,-0.34388592839241,41.2943400879609
204200,-0.34305727481842,41.3501425125365
204310,-0.343264430761337,41.1827352388097
204420,-0.344093084335327,40.7921102388097
204530,-0.344507396221161,40.6805053896584
204640,-0.343264430761337,40.5689005405072
204750,-0.344093084335327,40.4014852388097
204860,-0.34388592839241,40.3456747862633
204970,-0.34388592839241,40.5688844845657
205080,-0.34305727481842,41.0153119091414
205190,-0.344093084335327,41.1269167582926
205300,-0.344714552164078,41.2385216074438
205410,-0.343264430761337,41.461739333717
205510,-0.343264430761337,41.2943320599901
205620,-0.343264430761337,41.6291546354145
205730,-0.34388592839241,41.6849570599901
205840,-0.343471586704254,41.9081747862633
205950,-0.342850118875504,41.9639772108389
206060,-0.343678742647171,41.9081747862633
206170,-0.34305727481842,42.1871949371121
206280,-0.342850118875504,42.1313925125365
206390,-0.344093084335327,42.1871949371121
206500,-0.34388592839241,41.9639772108389
206610,-0.34305727481842,42.1313844845657
206720,-0.343678742647171,41.8523723616877
206830,-0.344093084335327,42.0197796354145
206930,-0.343471586704254,42.0197796354145
207040,-0.344093084335327,41.6849570599901
207150,-0.34388592839241,41.461739333717
207260,-0.344300240278244,41.5175417582926
207370,-0.34388592839241,41.4617313057462
207480,-0.34388592839241,41.3501184286243
207590,-0.344300240278244,41.2385135794731
207700,-0.343678742647171,41.350126456595
207810,-0.343678742647171,40.959501456595
207920,-0.344093084335327,41.1827111548974
208030,-0.343678742647171,41.0153038811706
208140,-0.34305727481842,41.1269087303218
208240,-0.343678742647171,41.0153038811706
208350,-0.344093084335327,40.9036910040487
208460,-0.343471586704254,40.6804813057462
208570,-0.343471586704254,40.7362837303218
208680,-0.343471586704254,40.7362837303218
208790,-0.343678742647171,40.8478966074438
208900,-0.34388592839241,40.9036990320194
209010,-0.343264430761337,41.0153038811706
209120,-0.34305727481842,41.2943240320194
209230,-0.343678742647171,41.3501344845657
209340,-0.34388592839241,41.0153119091414
209450,-0.344507396221161,40.7362917582926
209560,-0.343471586704254,40.7920941828682
209660,-0.343471586704254,40.9037070599901
209770,-0.344507396221161,40.6246869091414
209880,-0.343471586704254,40.6246869091414
209990,-0.344093084335327,40.680489333717
210100,-0.34243580698967,41.350126456595
210210,-0.342642962932587,41.8523563057462
210320,-0.342642962932587,42.1313684286243
210430,-0.343264430761337,42.3545861548974
210540,-0.344300240278244,42.0755660040487
210650,-0.344093084335327,41.8523482777755
210760,-0.341192841529846,42.1871708531999
210870,-0.34388592839241,42.2987757023511
210970,-0.343471586704254,42.5777958531999
211080,-0.344300240278244,42.4103805515023
211190,-0.344300240278244,42.2987757023511
211300,-0.34388592839241,42.5219854006535
211410,-0.344300240278244,42.4103805515023
211520,-0.343264430761337,42.4661829760779
211630,-0.343264430761337,42.5219854006535
211740,-0.345128864049912,42.6335982777755
211850,-0.343678742647171,42.4103885794731
211960,-0.344093084335327,42.3545861548974
212070,-0.343678742647171,42.0755740320194
212180,-0.34305727481842,42.4661990320194
212290,-0.343678742647171,42.7452191828682
212390,-0.344300240278244,42.6894167582926
212500,-0.344507396221161,42.633614333717
212610,-0.342850118875504,42.8568240320194
212720,-0.34388592839241,42.6336063057462
212830,-0.34388592839241,42.6336063057462
212940,-0.344714552164078,42.1871788811706
213050,-0.344300240278244,42.131376456595
213160,-0.343678742647171,42.3545941828682
213270,-0.343264430761337,42.3545941828682
213380,-0.34388592839241,42.4103966074438
213490,-0.34388592839241,42.5778038811706
213600,-0.34388592839241,42.5219934286243
213700,-0.343471586704254,42.6894087303218
213810,-0.343264430761337,42.6336063057462
213920,-0.343678742647171,42.6336063057462
214030,-0.343471586704254,42.522001456595
214140,-0.343471586704254,42.5778038811706
214250,-0.345336049795151,42.1871788811706
214360,-0.343678742647171,42.3545941828682
214470,-0.34388592839241,41.9639691828682
214580,-0.342642962932587,42.2987917582926
214690,-0.343678742647171,42.1871869091414
214800,-0.34305727481842,42.0755820599901
214910,-0.344093084335327,41.9081667582926
215020,-0.342850118875504,42.4103966074438
215120,-0.344507396221161,42.242989333717
215230,-0.343264430761337,42.2987917582926
215340,-0.343264430761337,42.1871869091414
215450,-0.343678742647171,42.3546022108389
215560,-0.343471586704254,42.6336223616877
215670,-0.343471586704254,42.6336223616877
215780,-0.344300240278244,42.5220175125365
215890,-0.34243580698967,42.9684449371121
216000,-0.34388592839241,42.9684449371121
216110,-0.343471586704254,42.9684449371121
216220,-0.343264430761337,43.1916626633853
216330,-0.342642962932587,43.6938925125365
216430,-0.34388592839241,43.5822796354145
216540,-0.344093084335327,43.5822796354145
216650,-0.344093084335327,43.414864333717
216760,-0.344300240278244,43.024239333717
216870,-0.343471586704254,42.7452272108389
216980,-0.344507396221161,42.2987997862633
217090,-0.34388592839241,42.1871869091414
217200,-0.344714552164078,41.9639772108389
217310,-0.34243580698967,42.633614333717
217420,-0.342642962932587,42.8568240320194
217530,-0.343471586704254,42.912626456595
217640,-0.34388592839241,42.6336063057462
217750,-0.343678742647171,42.6336063057462
217850,-0.343678742647171,42.9684288811706
217960,-0.343471586704254,43.2474490320194
218070,-0.34305727481842,43.4706667582926
218180,-0.344507396221161,43.0800417582926
218290,-0.34388592839241,42.912626456595
218400,-0.34388592839241,42.9684288811706
218510,-0.34243580698967,43.5264611548974
218620,-0.34388592839241,43.3590458531999
218730,-0.343471586704254,43.5264611548974
218840,-0.34305727481842,43.7496788811706
218950,-0.34305727481842,43.9728966074438
219060,-0.343264430761337,43.9170941828682
219160,-0.344093084335327,43.9170941828682
219270,-0.343471586704254,44.2519167582926
219380,-0.343471586704254,44.196114333717
219490,-0.344093084335327,43.9728966074438
219600,-0.344921708106995,43.5264691828682
219710,-0.344300240278244,43.414864333717
219820,-0.34305727481842,43.5264691828682
219930,-0.34388592839241,43.2474490320194
220040,-0.344093084335327,43.1358361548974
220150,-0.344300240278244,42.8010135794731
220260,-0.344300240278244,42.4103885794731
220370,-0.344300240278244,42.3545861548974
220480,-0.34388592839241,42.3545861548974
220580,-0.343471586704254,42.2429813057462
220690,-0.344300240278244,42.0755660040487
220800,-0.343678742647171,42.1871788811706
220910,-0.343264430761337,42.2429813057462
221020,-0.344300240278244,42.1871788811706
221130,-0.34305727481842,42.4103966074438
221240,-0.344921708106995,42.242989333717
221350,-0.344507396221161,42.0755820599901
221460,-0.34305727481842,42.2987997862633
221570,-0.34305727481842,42.6336223616877
221680,-0.343678742647171,42.6336223616877
221790,-0.344507396221161,42.4104046354145
221890,-0.34305727481842,42.6894247862633
222000,-0.342850118875504,42.9126344845657
222110,-0.344507396221161,42.5220094845657
222220,-0.344300240278244,42.3545941828682
222330,-0.343471586704254,42.5220094845657
222440,-0.34388592839241,42.4103966074438
222550,-0.34388592839241,42.2987837303218
222660,-0.342642962932587,42.5219934286243
222770,-0.344507396221161,42.2987757023511
222880,-0.34388592839241,42.2987757023511
222990,-0.34388592839241,42.1313604006535
223100,-0.345750361680985,41.4059128252292
223210,-0.344300240278244,41.2384975235316
223310,-0.344093084335327,41.182695098956
223420,-0.344093084335327,41.2942999481072
223530,-0.34388592839241,41.1826870709852
223640,-0.344507396221161,40.9036669201365
223750,-0.34388592839241,41.0710741938633
223860,-0.34388592839241,40.9594613167413
223970,-0.34388592839241,41.015263741317
224080,-0.343264430761337,40.7920540430145
224190,-0.344300240278244,40.3456266184389
224300,-0.344507396221161,39.8433967692877
224410,-0.344300240278244,39.5643766184389
224520,-0.342850118875504,39.9550016184389
224620,-0.343678742647171,40.0666144955609
224730,-0.34388592839241,39.3411669201365
224840,-0.343264430761337,39.508582221834
224950,-0.343264430761337,39.5643846464096
225060,-0.343264430761337,39.8434047972584
225170,-0.344093084335327,39.899207221834
225280,-0.342021465301514,40.401445098956
225390,-0.343678742647171,40.5688604006535
225500,-0.34305727481842,40.6246628252292
225610,-0.343471586704254,40.5688604006535
225720,-0.344714552164078,40.6804652498048
225830,-0.344507396221161,40.4572475235316
225940,-0.343678742647171,40.5688604006535
226040,-0.34388592839241,40.5130499481072
226150,-0.34388592839241,40.289832221834
226260,-0.344300240278244,40.1224169201365
226370,-0.34305727481842,40.4572394955609
226480,-0.343678742647171,40.680457221834
226590,-0.343471586704254,40.5130499481072
226700,-0.344300240278244,40.401445098956
226810,-0.342642962932587,40.7362676743804
226920,-0.342642962932587,41.2942999481072
227030,-0.343471586704254,41.5175176743804
227140,-0.343264430761337,41.6291225235316
227250,-0.344714552164078,41.2384975235316
227350,-0.342850118875504,41.5175176743804
227460,-0.344093084335327,41.4617152498048
227570,-0.343471586704254,41.5733281269267
227680,-0.34305727481842,41.6849329760779
227790,-0.34388592839241,41.5175176743804
227900,-0.342642962932587,41.7965297972584
228010,-0.34305727481842,41.9081346464096
228120,-0.344507396221161,41.6291144955609
228230,-0.344507396221161,41.852332221834
228340,-0.343678742647171,41.852332221834
228450,-0.342850118875504,42.1313523726828
228560,-0.343471586704254,41.9081426743804
228670,-0.34305727481842,42.0755499481072
228770,-0.344093084335327,41.7965297972584
228880,-0.342642962932587,42.1871547972584
228990,-0.344093084335327,41.852332221834
229100,-0.34243580698967,42.4103644955609
229210,-0.34243580698967,42.6335741938633
229320,-0.343678742647171,42.5219693447121
229430,-0.342850118875504,42.7451790430145
229540,-0.343264430761337,42.8009814675901
229650,-0.344921708106995,42.4103564675901
229760,-0.344093084335327,42.4661588921657
229870,-0.343264430761337,42.2429491938633
229980,-0.343264430761337,42.4103644955609
230080,-0.343264430761337,42.4661669201365
230190,-0.343264430761337,42.4661669201365
230300,-0.343678742647171,42.1871547972584
230410,-0.34305727481842,42.4103725235316
230520,-0.344507396221161,42.2987676743804
230630,-0.343264430761337,42.5219854006535
230740,-0.343471586704254,42.7452031269267
230850,-0.34388592839241,42.6335902498048
230960,-0.345336049795151,42.4103725235316
231070,-0.342642962932587,42.745195098956
231180,-0.34388592839241,42.9684047972584
231290,-0.342642962932587,42.9126023726828
231400,-0.343678742647171,42.6335902498048
231500,-0.344507396221161,42.354570098956
231610,-0.343471586704254,42.4661829760779
231720,-0.343264430761337,42.5777878252292
231830,-0.344093084335327,42.4661749481072
231940,-0.345128864049912,42.0197475235316
232050,-0.344507396221161,41.6291225235316
232160,-0.342021465301514,42.2987676743804
232270,-0.344714552164078,42.0755579760779
232380,-0.344093084335327,42.0197555515023
232490,-0.343471586704254,41.7407434286243
232600,-0.34388592839241,41.7407434286243
232710,-0.34388592839241,41.6291305515023
232810,-0.343471586704254,41.5175257023511
232920,-0.343471586704254,41.4059208531999
233030,-0.343678742647171,41.2943160040487
233140,-0.34388592839241,41.3501184286243
233250,-0.34243580698967,41.6291305515023
233360,-0.344507396221161,41.3501104006535
233470,-0.343678742647171,41.4617232777755
233580,-0.34305727481842,41.9639531269267
233690,-0.34243580698967,42.4661829760779
233800,-0.343264430761337,42.4103805515023
233910,-0.34388592839241,42.4103805515023
234020,-0.344093084335327,42.4103805515023
234130,-0.34388592839241,42.5219854006535
234230,-0.343264430761337,42.8010055515023
234340,-0.34388592839241,42.9126104006535
234450,-0.343471586704254,43.0242232777755
234560,-0.342642962932587,43.2474329760779
234670,-0.343264430761337,43.5264531269267
234780,-0.34388592839241,43.4706426743804
234890,-0.343678742647171,43.3590378252292
235000,-0.34243580698967,43.8612676743804
235110,-0.343264430761337,43.8054652498048
235220,-0.343678742647171,44.1402878252292
235330,-0.344093084335327,44.2518926743804
235440,-0.344093084335327,43.9728725235316
235540,-0.34388592839241,43.7496547972584
235650,-0.343471586704254,43.805457221834
235760,-0.34388592839241,43.9728644955609
235870,-0.343264430761337,43.9170620709852
235980,-0.342021465301514,44.1402797972584
236090,-0.343678742647171,44.3634975235316
236200,-0.34243580698967,44.8657273726828
236310,-0.343264430761337,44.9215297972584
236420,-0.34388592839241,44.9215297972584
236530,-0.344714552164078,44.698320098956
236640,-0.344300240278244,44.2518926743804
236750,-0.342850118875504,44.698320098956
236860,-0.344300240278244,44.5867152498048
236960,-0.344300240278244,44.4751104006535
237070,-0.34388592839241,44.9773402498048
237180,-0.343678742647171,45.1447555515023
237290,-0.34388592839241,45.2005579760779
237400,-0.343471586704254,45.3679732777755
237510,-0.34388592839241,45.3679732777755
237620,-0.343264430761337,45.7027958531999
237730,-0.343678742647171,45.7586063057462
237840,-0.344921708106995,45.4795941828682
237950,-0.34305727481842,45.7028119091414
238060,-0.34243580698967,45.9260216074438
238170,-0.344300240278244,45.9260216074438
238270,-0.344300240278244,45.9818240320194
238380,-0.342642962932587,46.428251456595
238490,-0.344093084335327,46.0934288811706
238600,-0.343678742647171,46.0934288811706
238710,-0.34388592839241,46.0934288811706
238820,-0.344300240278244,45.8144087303218
238930,-0.343264430761337,45.8144087303218
239040,-0.343471586704254,45.7586063057462
239150,-0.34305727481842,46.037626456595
239260,-0.343264430761337,45.7028038811706
239370,-0.34388592839241,45.6469934286243
239480,-0.343678742647171,45.4795861548974
239590,-0.34388592839241,45.3679732777755
239690,-0.344507396221161,45.4237757023511
239800,-0.34305727481842,45.8144007023511
239910,-0.34388592839241,45.7585902498048
240020,-0.34388592839241,45.7585902498048
240130,-0.34305727481842,45.9818079760779
240240,-0.343471586704254,46.2050257023511
240350,-0.344300240278244,45.8702031269267
240460,-0.34388592839241,45.8143926743804
240570,-0.344093084335327,45.6469773726828
240680,-0.344093084335327,45.7027797972584
240790,-0.343678742647171,45.4237676743804
240900,-0.34305727481842,45.3121628252292
241000,-0.344714552164078,44.9773402498048
241110,-0.34388592839241,44.8099249481072
241220,-0.343678742647171,45.088945098956
241330,-0.342228621244431,45.2563604006535
241440,-0.343471586704254,45.4237757023511
241550,-0.343264430761337,45.4795781269267
241660,-0.343678742647171,45.3121708531999
241770,-0.342850118875504,45.5911910040487
241880,-0.342228621244431,45.7028038811706
241990,-0.344093084335327,45.4237837303218
242100,-0.34388592839241,45.5911910040487
242210,-0.343471586704254,45.8702111548974
242320,-0.344300240278244,45.7027958531999
242420,-0.343678742647171,45.4795861548974
242530,-0.34388592839241,45.3679732777755
242640,-0.344300240278244,45.0331507023511
242750,-0.344714552164078,44.8657434286243
242860,-0.341814309358597,45.0889611548974
242970,-0.34160715341568,45.7586063057462
243080,-0.343678742647171,45.4237917582926
243190,-0.34388592839241,45.0331667582926
243300,-0.34388592839241,44.9773563057462
243410,-0.34305727481842,44.9215538811706
243520,-0.343264430761337,44.9215538811706
243630,-0.342850118875504,45.4795861548974
243730,-0.342850118875504,45.8144087303218
243840,-0.342228621244431,46.0934288811706
243950,-0.34243580698967,46.3166385794731
244060,-0.34388592839241,46.1492232777755
244170,-0.345128864049912,45.6469934286243
244280,-0.344300240278244,45.4795781269267
244390,-0.343471586704254,45.3679732777755
244500,-0.34305727481842,45.7585982777755
244610,-0.342642962932587,45.9260055515023
244720,-0.342850118875504,46.0934128252292
244830,-0.342850118875504,46.3724329760779
244940,-0.343678742647171,46.8188684286243
245050,-0.343471586704254,46.5956587303218
245150,-0.343678742647171,46.6514691828682
245260,-0.342228621244431,46.7630820599901
245370,-0.343264430761337,46.8746869091414
245480,-0.34388592839241,47.0420941828682
245590,-0.344300240278244,46.818876456595
245700,-0.342850118875504,46.9304813057462
245810,-0.343678742647171,47.0420941828682
245920,-0.342850118875504,47.6559288811706
246030,-0.344300240278244,47.7117313057462
246140,-0.344093084335327,47.1536910040487
246250,-0.344300240278244,47.2652958531999
246360,-0.343678742647171,47.3769087303218
246460,-0.343264430761337,47.4327111548974
246570,-0.343678742647171,47.4885216074438
246680,-0.341814309358597,48.0465619091414
246790,-0.343264430761337,48.102364333717
246900,-0.343678742647171,48.0465619091414
247010,-0.344093084335327,47.9349490320194
247120,-0.344300240278244,47.8233441828682
247230,-0.34305727481842,47.6559369091414
247340,-0.344714552164078,47.6001344845657
247450,-0.343678742647171,47.6001344845657
247560,-0.344093084335327,47.321114333717
247670,-0.343678742647171,46.9862997862633
247780,-0.342850118875504,47.0979046354145
247880,-0.343678742647171,47.1537150879609
247990,-0.342642962932587,47.5443400879609
248100,-0.343678742647171,47.6001505405072
248210,-0.34305727481842,47.6559529650828
248320,-0.343678742647171,47.7117634176292
248430,-0.344300240278244,47.488545691356
248540,-0.34388592839241,47.1537231159316
248650,-0.342642962932587,47.3211303896584
248760,-0.343471586704254,47.4327432667804
248870,-0.343471586704254,47.488545691356
248980,-0.34243580698967,47.488545691356
249090,-0.34305727481842,47.5443481159316
249190,-0.34388592839241,47.4885376633853
249300,-0.34388592839241,47.5443400879609
249410,-0.344093084335327,47.5443400879609
249520,-0.342850118875504,47.8233602388097
249630,-0.34305727481842,47.9349650879609
249740,-0.34388592839241,47.9349650879609
249850,-0.342021465301514,48.2697876633853
249960,-0.34388592839241,47.7675497862633
250070,-0.343471586704254,47.8233522108389
250180,-0.343471586704254,47.5443400879609
250290,-0.343471586704254,47.4885376633853
250400,-0.344300240278244,47.376932814234
250510,-0.34388592839241,47.6001425125365
250610,-0.344093084335327,47.6559449371121
250720,-0.342850118875504,47.6559449371121
250830,-0.343678742647171,47.8233602388097
250940,-0.343678742647171,47.9907755405072
251050,-0.342642962932587,48.3255981159316
251160,-0.342642962932587,48.6046102388097
251270,-0.34388592839241,48.6046102388097
251380,-0.343264430761337,48.6604126633853
251490,-0.344093084335327,48.6046102388097
251600,-0.343678742647171,48.4930053896584
251710,-0.343471586704254,48.548807814234
251820,-0.344714552164078,48.6046102388097
251930,-0.34243580698967,48.7720175125365
252030,-0.34388592839241,48.3813925125365
252140,-0.343264430761337,48.6604126633853
252250,-0.343678742647171,48.8278279650828
252360,-0.344093084335327,48.4372029650828
252470,-0.343678742647171,48.5488158422048
252580,-0.343471586704254,48.6046182667804
252690,-0.343678742647171,48.6604287193267
252800,-0.343264430761337,48.9394488701755
252910,-0.343471586704254,48.8836464455999
253020,-0.342850118875504,49.0510537193267
253130,-0.344507396221161,48.6604287193267
253240,-0.34160715341568,49.1068561439023
253340,-0.34388592839241,49.1068561439023
253450,-0.343471586704254,49.1626585684779
253560,-0.344507396221161,48.9952512947511
253670,-0.342642962932587,49.4974811439023
253780,-0.343264430761337,49.4416787193267
253890,-0.34305727481842,49.6648964455999
254000,-0.344093084335327,49.6090940210243
254110,-0.344714552164078,49.1626665964487
254220,-0.343678742647171,49.1068641718731
254330,-0.345543205738068,48.7720415964487
254440,-0.344093084335327,48.7162391718731
254550,-0.344714552164078,48.5488318981462
254660,-0.344300240278244,48.4930294735706
254760,-0.34305727481842,48.6604367472975
254870,-0.34388592839241,48.4372190210243
254980,-0.34388592839241,48.6604287193267
255090,-0.343678742647171,48.7162391718731
255200,-0.343678742647171,48.7162391718731
255310,-0.34388592839241,48.2698037193267
255420,-0.344507396221161,47.9907835684779
255530,-0.343471586704254,47.9349811439023
255640,-0.344714552164078,47.6559609930536
255750,-0.343471586704254,47.4885537193267
255860,-0.344507396221161,46.8747109930536
255970,-0.34388592839241,46.9305134176292
256070,-0.344507396221161,46.7631061439023
256180,-0.34388592839241,46.6514932667804
256290,-0.343264430761337,46.9305134176292
256400,-0.344093084335327,46.8189005405072
256510,-0.343471586704254,46.9305134176292
256620,-0.344714552164078,46.8189085684779
256730,-0.343471586704254,47.1537311439023
256840,-0.344921708106995,46.3166787193267
256950,-0.343264430761337,45.8702512947511
257060,-0.344714552164078,45.5912311439023
257170,-0.342642962932587,45.9260537193267
257280,-0.343471586704254,46.0376665964487
257390,-0.344300240278244,45.7028440210243
257490,-0.343471586704254,45.6470415964487
257600,-0.342850118875504,45.6470415964487
257710,-0.343678742647171,45.4238318981462
257820,-0.344300240278244,44.8657915964487
257930,-0.343471586704254,44.5867794735706
258040,-0.344300240278244,44.4751746244194
258150,-0.343471586704254,44.921602048995
258260,-0.34305727481842,45.2564246244194
258370,-0.34388592839241,45.1448117472975
258480,-0.344300240278244,44.8099891718731
258590,-0.343471586704254,44.5867794735706
258700,-0.343678742647171,44.3635697752682
258800,-0.343678742647171,44.1403600769658
258910,-0.343264430761337,44.251964926117
259020,-0.344093084335327,44.0845496244194
259130,-0.34305727481842,44.2519568981462
259240,-0.344093084335327,43.7497190210243
259350,-0.344507396221161,43.4148964455999
259460,-0.342850118875504,43.6939165964487
259570,-0.344093084335327,43.7497190210243
259680,-0.345543205738068,43.0242714455999
259790,-0.344300240278244,42.8568561439023
259900,-0.344300240278244,42.4662311439023
260010,-0.343678742647171,42.6336464455999
260120,-0.343678742647171,42.7452593227219
260220,-0.343678742647171,42.9126746244194
260330,-0.342850118875504,43.1358843227219
260440,-0.342642962932587,43.3032915964487
260550,-0.344714552164078,43.0242714455999
260660,-0.34305727481842,42.6894488701755
260770,-0.343264430761337,42.6894488701755
260880,-0.343678742647171,42.6894488701755
260990,-0.344300240278244,42.6336464455999
261100,-0.343471586704254,42.8568641718731
261210,-0.343471586704254,42.7452593227219
261320,-0.34305727481842,43.1916867472975
261430,-0.343471586704254,43.2474891718731
261530,-0.344093084335327,43.2474891718731
261640,-0.344093084335327,43.1358762947511
261750,-0.343264430761337,43.0242714455999
261860,-0.344507396221161,42.8010537193267
261970,-0.34243580698967,42.8568561439023
262080,-0.342228621244431,43.2474811439023
262190,-0.344093084335327,42.9684609930536
262300,-0.344300240278244,42.801045691356
262410,-0.342642962932587,43.2474731159316
262520,-0.344507396221161,43.0800658422048
262630,-0.343264430761337,42.9126585684779
262740,-0.344507396221161,42.6336384176292
262850,-0.344093084335327,42.4662231159316
262950,-0.344921708106995,41.7965859930536
263060,-0.344093084335327,41.5175658422048
263170,-0.342850118875504,41.7965859930536
263280,-0.34388592839241,41.7965859930536
263390,-0.342850118875504,42.1314085684779
263500,-0.344093084335327,41.7965859930536
263610,-0.344300240278244,41.4617634176292
263720,-0.342228621244431,41.9081988701755
263830,-0.34388592839241,41.4059609930536
263940,-0.344300240278244,41.2943561439023
264050,-0.342642962932587,41.5175658422048
264160,-0.34305727481842,41.629170691356
264260,-0.34388592839241,41.517557814234
264370,-0.344093084335327,41.5733602388097
264480,-0.344093084335327,41.517557814234
264590,-0.343471586704254,41.6849731159316
264700,-0.34388592839241,41.4059529650828
264810,-0.343471586704254,41.4617553896584
264920,-0.343471586704254,41.517557814234
265030,-0.344093084335327,41.126932814234
265140,-0.343471586704254,40.9037231159316
265250,-0.343678742647171,40.9595335684779
265360,-0.343471586704254,40.9037311439023
265470,-0.343264430761337,41.1269488701755
265580,-0.343471586704254,41.1827512947511
265680,-0.342850118875504,41.3501585684779
265790,-0.343678742647171,41.6291787193267
265900,-0.343678742647171,41.2943641718731
266010,-0.344507396221161,41.1269568981462
266120,-0.344093084335327,40.9037391718731
266230,-0.343471586704254,40.9595415964487
266340,-0.34305727481842,41.2385617472975
266450,-0.342850118875504,41.4617714455999
266560,-0.34305727481842,41.5733762947511
266670,-0.34388592839241,41.5175658422048
266780,-0.343678742647171,41.4059609930536
266890,-0.34243580698967,41.6849731159316
266990,-0.344507396221161,41.238545691356
267100,-0.343678742647171,41.4617634176292
267210,-0.34388592839241,40.847920691356
267320,-0.34388592839241,40.847920691356
267430,-0.344921708106995,40.457295691356
267540,-0.34388592839241,40.6247029650828
267650,-0.344921708106995,40.0108682667804
267760,-0.343471586704254,39.9550658422048
267870,-0.343264430761337,39.8992634176292
267980,-0.344300240278244,39.8434609930536
268090,-0.343471586704254,40.1782835684779
268200,-0.34243580698967,40.5130981159316
268310,-0.344714552164078,40.7363158422048
268410,-0.34388592839241,40.7921182667804
268520,-0.343471586704254,41.1269408422048
268630,-0.344507396221161,41.0711384176292
268740,-0.344093084335327,40.7921182667804
268850,-0.343678742647171,40.8479287193267
268960,-0.343678742647171,40.9037391718731
269070,-0.343264430761337,41.0153440210243
269180,-0.343471586704254,41.0711464455999
269290,-0.343264430761337,41.2385617472975
269400,-0.343264430761337,41.5733843227219
269510,-0.343471586704254,41.5733843227219
269620,-0.342642962932587,42.1314165964487
269720,-0.344093084335327,41.9640012947511
269830,-0.34243580698967,42.5220335684779
269940,-0.34305727481842,42.7452512947511
270050,-0.344507396221161,42.7452512947511
270160,-0.343678742647171,42.8010617472975
270270,-0.34388592839241,42.6336464455999
270380,-0.344507396221161,42.5220415964487
270490,-0.344300240278244,42.2988238701755
270600,-0.344093084335327,42.4662311439023
270710,-0.345128864049912,42.0198037193267
270820,-0.344300240278244,42.1872109930536
270930,-0.344093084335327,41.9639932667804
271040,-0.343471586704254,42.2988158422048
271140,-0.34388592839241,41.9639932667804
271250,-0.344300240278244,41.7407755405072
271360,-0.344093084335327,41.7965779650828
271470,-0.34388592839241,41.6849650879609
271580,-0.344093084335327,41.3501425125365
271690,-0.344093084335327,41.2385296354145
271800,-0.343678742647171,41.4059449371121
271910,-0.344300240278244,41.1827272108389
272020,-0.343678742647171,41.3501425125365
272130,-0.34388592839241,41.2385296354145
272240,-0.344507396221161,40.8479046354145
272350,-0.343678742647171,40.9037150879609
272450,-0.344093084335327,40.9595175125365
272560,-0.342642962932587,41.1827272108389
272670,-0.34305727481842,41.3501344845657
272780,-0.34305727481842,41.5175417582926
272890,-0.344093084335327,41.2943240320194
273000,-0.34388592839241,41.350126456595
273110,-0.342850118875504,41.4059288811706
273220,-0.344300240278244,41.350126456595
273330,-0.34388592839241,41.5175337303218
273440,-0.342850118875504,41.5175337303218
273550,-0.34388592839241,41.5733361548974
273660,-0.34305727481842,42.2429813057462
273770,-0.343471586704254,42.4661990320194
273870,-0.342850118875504,42.8568240320194
273980,-0.344300240278244,42.6894087303218
274090,-0.344093084335327,42.5777958531999
274200,-0.344300240278244,42.4103805515023
274310,-0.344714552164078,41.9081507023511
274420,-0.343471586704254,41.6849410040487
274530,-0.34388592839241,41.9081507023511
274640,-0.344093084335327,41.6291305515023
274750,-0.343678742647171,41.5175257023511
274860,-0.344507396221161,41.2943079760779
274970,-0.344093084335327,41.3501104006535
275080,-0.34388592839241,41.2384975235316
275180,-0.343471586704254,41.2384975235316
275290,-0.34305727481842,41.2384975235316
275400,-0.344714552164078,40.9036749481072
275510,-0.343678742647171,41.0152878252292
275620,-0.344507396221161,40.9036829760779
275730,-0.343678742647171,40.7920781269267
275840,-0.343471586704254,41.0710982777755
275950,-0.344093084335327,40.6246708531999
276060,-0.34388592839241,40.1782354006535
276170,-0.344093084335327,40.1782354006535
276280,-0.343471586704254,40.4014531269267
276390,-0.343471586704254,40.1782434286243
276500,-0.344093084335327,40.2898482777755
276600,-0.343471586704254,40.2340458531999
276710,-0.34305727481842,40.6246708531999
276820,-0.34305727481842,40.9036910040487
276930,-0.342850118875504,41.4617232777755
277040,-0.344300240278244,41.4059208531999
277150,-0.344300240278244,41.0152958531999
277260,-0.343264430761337,41.1827111548974
277370,-0.344714552164078,40.6804813057462
277480,-0.34305727481842,40.959501456595
277590,-0.343678742647171,41.1269167582926
277700,-0.344093084335327,40.6246788811706
277810,-0.343264430761337,40.7920941828682
277910,-0.344714552164078,40.680489333717
278020,-0.342850118875504,40.6246869091414
278130,-0.343678742647171,40.4572796354145
278240,-0.343678742647171,40.5130900879609
278350,-0.344300240278244,40.4572876633853
278460,-0.343264430761337,40.6805053896584
278570,-0.34388592839241,40.5688925125365
278680,-0.343678742647171,40.6247029650828
278790,-0.34388592839241,40.5130900879609
278900,-0.344093084335327,40.3456747862633
279010,-0.345128864049912,40.0666626633853
279120,-0.342850118875504,40.2340699371121
279230,-0.343678742647171,40.2340699371121
279330,-0.343471586704254,40.2340699371121
279440,-0.34388592839241,40.0666546354145
279550,-0.343471586704254,40.0666546354145
279660,-0.34388592839241,39.7876344845657
279770,-0.343264430761337,39.899239333717
279880,-0.343678742647171,39.899239333717
279990,-0.344093084335327,40.0108441828682
280100,-0.344093084335327,40.0108441828682
280210,-0.344300240278244,39.787626456595
280320,-0.34388592839241,39.5644087303218
280430,-0.34388592839241,39.2853885794731
280540,-0.344714552164078,38.8389611548974
280640,-0.344507396221161,38.6715538811706
280750,-0.34388592839241,38.6157434286243
280860,-0.343471586704254,38.3367313057462
280970,-0.34305727481842,38.7273563057462
281080,-0.34305727481842,38.8947635794731
281190,-0.34388592839241,38.8947635794731
281300,-0.343471586704254,39.006376456595
281410,-0.343678742647171,39.3411990320194
281520,-0.343471586704254,39.4528119091414
281630,-0.343678742647171,39.7876344845657
281740,-0.343678742647171,39.7318320599901
281850,-0.344093084335327,39.508614333717
281960,-0.344093084335327,39.5644167582926
282060,-0.343471586704254,39.5644167582926
282170,-0.34305727481842,39.3970094845657
282280,-0.34388592839241,39.6202191828682
282390,-0.344714552164078,39.3970094845657
282500,-0.343264430761337,39.4528119091414
282610,-0.342642962932587,39.9550417582926
282720,-0.34305727481842,40.2340619091414
282830,-0.344093084335327,40.1224490320194
282940,-0.343678742647171,40.1224490320194
283050,-0.344300240278244,39.8434288811706
283160,-0.343264430761337,39.8992313057462
283270,-0.344507396221161,39.5644087303218
283370,-0.343264430761337,39.5644087303218
283480,-0.343471586704254,39.5644087303218
283590,-0.344300240278244,39.1179813057462
283700,-0.344093084335327,39.1179813057462
283810,-0.343471586704254,38.8389691828682
283920,-0.343471586704254,38.727364333717
284030,-0.34388592839241,38.8947716074438
284140,-0.344921708106995,38.5599490320194
284250,-0.344714552164078,38.336739333717
284360,-0.344507396221161,38.336739333717
284470,-0.343678742647171,38.5041546354145
284580,-0.342850118875504,38.8389772108389
284690,-0.344921708106995,38.8947796354145
284790,-0.34305727481842,39.2296022108389
284900,-0.344093084335327,39.2296022108389
285010,-0.34305727481842,39.3412070599901
285120,-0.343471586704254,39.4528199371121
285230,-0.343471586704254,39.6760376633853
285340,-0.344714552164078,39.5086303896584
285450,-0.34305727481842,39.7318481159316
285560,-0.343471586704254,39.8992634176292
285670,-0.343678742647171,40.0108762947511
285780,-0.343471586704254,40.0666787193267
285890,-0.343678742647171,40.2340940210243
286000,-0.343678742647171,40.2340940210243
286100,-0.34388592839241,40.2340940210243
286210,-0.344093084335327,40.3456988701755
286320,-0.344714552164078,40.0666787193267
286430,-0.343264430761337,40.2898964455999
286540,-0.342850118875504,40.2340940210243
286650,-0.344300240278244,39.8992714455999
286760,-0.343678742647171,39.7318641718731
286870,-0.34388592839241,39.7876665964487
286980,-0.34388592839241,39.7876665964487
287090,-0.343264430761337,39.6760617472975
287200,-0.34388592839241,39.7876665964487
287310,-0.343471586704254,39.8992794735706
287420,-0.344507396221161,39.452852048995
287520,-0.344507396221161,39.2854447752682
287630,-0.34388592839241,39.062227048995
287740,-0.345128864049912,38.6157996244194
287850,-0.34388592839241,38.3367794735706
287960,-0.34388592839241,38.4483843227219
288070,-0.34305727481842,38.7274044735706
288180,-0.344507396221161,38.671602048995
288290,-0.343264430761337,39.062227048995
288400,-0.343264430761337,39.1180294735706
288510,-0.34305727481842,39.3412471998438
288620,-0.343471586704254,39.5086625015414
288730,-0.344300240278244,39.3412471998438
288830,-0.343678742647171,39.564464926117
288940,-0.343678742647171,39.6760778032389
289050,-0.344714552164078,39.4528681049365
289160,-0.343471586704254,39.4528681049365
289270,-0.343471586704254,39.3412632557853
289380,-0.342850118875504,39.8434931049365
289490,-0.343678742647171,39.8434931049365
289600,-0.344714552164078,39.7876906803609
289710,-0.34305727481842,39.9550979540877
289820,-0.34388592839241,39.8434850769658
289930,-0.343678742647171,39.9550979540877
290040,-0.344507396221161,39.7876906803609
290150,-0.34243580698967,40.2341181049365
290250,-0.34305727481842,40.3457229540877
290360,-0.343678742647171,40.2899205295121
290470,-0.344300240278244,40.2341181049365
290580,-0.342850118875504,40.4015253786633
290690,-0.344507396221161,40.0109003786633
290800,-0.343264430761337,39.9550979540877
290910,-0.344300240278244,39.5644729540877
291020,-0.34388592839241,39.6760778032389
291130,-0.343471586704254,39.8992955295121
291240,-0.343264430761337,39.8992955295121
291350,-0.344300240278244,40.0109003786633
291460,-0.343678742647171,39.8434931049365
291560,-0.343471586704254,39.8992955295121
291670,-0.343264430761337,40.1225132557853
291780,-0.343678742647171,40.0109084066341
291890,-0.344093084335327,40.1783156803609
292000,-0.34388592839241,39.8992955295121
292110,-0.34388592839241,39.8434850769658
292220,-0.343471586704254,39.8992875015414
292330,-0.343678742647171,40.0667028032389
292440,-0.342642962932587,40.2341100769658
292550,-0.34388592839241,40.2341100769658
292660,-0.343471586704254,40.2899125015414
292770,-0.34388592839241,40.2899125015414
292880,-0.344507396221161,40.1783076523902
292980,-0.34305727481842,40.736339926117
293090,-0.343264430761337,40.6247350769658
293200,-0.342642962932587,40.9037471998438
293310,-0.344300240278244,40.6805294735706
293420,-0.343264430761337,40.8479447752682
293530,-0.344093084335327,40.6805294735706
293640,-0.343264430761337,40.8479447752682
293750,-0.344300240278244,40.5689246244194
293860,-0.343678742647171,40.5689246244194
293970,-0.34388592839241,40.624727048995
294080,-0.343678742647171,40.736339926117
294190,-0.344714552164078,40.6247350769658
294290,-0.344093084335327,40.5689326523902
294400,-0.342850118875504,40.8479528032389
294510,-0.344300240278244,40.9595576523902
294620,-0.343678742647171,41.1827753786633
294730,-0.343264430761337,41.3501906803609
294840,-0.345336049795151,40.8479528032389
294950,-0.344093084335327,40.5689326523902
295060,-0.343264430761337,40.5131302278145
295170,-0.34243580698967,40.9037552278145
295280,-0.34388592839241,40.7921423506926
295390,-0.345336049795151,40.3457068981462
295500,-0.343264430761337,40.4015093227219
295610,-0.34388592839241,40.3456988701755
295710,-0.344300240278244,40.1782835684779
295820,-0.343678742647171,40.2898964455999
295930,-0.344093084335327,40.2898964455999
296040,-0.34305727481842,40.4015012947511
296150,-0.344300240278244,40.0666787193267
296260,-0.34305727481842,40.2898964455999
296370,-0.343471586704254,40.6247190210243
296480,-0.34305727481842,40.6805214455999
296590,-0.34388592839241,40.3456988701755
296700,-0.343264430761337,40.2898964455999
296810,-0.343471586704254,40.4573117472975
296920,-0.344093084335327,40.3456988701755
297020,-0.343264430761337,40.6247190210243
297130,-0.34388592839241,40.4573037193267
297240,-0.344300240278244,40.5131061439023
297350,-0.344093084335327,40.2898884176292
297460,-0.343678742647171,40.2340859930536
297570,-0.34243580698967,40.7363158422048
297680,-0.34305727481842,41.0153359930536
297790,-0.34388592839241,40.9037231159316
297900,-0.344507396221161,40.6247029650828
298010,-0.344093084335327,40.5689005405072
298120,-0.344300240278244,40.736307814234
298230,-0.345128864049912,40.6247029650828
298340,-0.343678742647171,40.847920691356
298440,-0.344093084335327,40.736307814234
298550,-0.34243580698967,40.8479126633853
298660,-0.34388592839241,41.1269247862633
298770,-0.34388592839241,40.9037070599901
298880,-0.343471586704254,41.0711223616877
298990,-0.344300240278244,40.7362997862633
299100,-0.344507396221161,40.4572796354145
299210,-0.34388592839241,40.3456667582926
299320,-0.34388592839241,40.568876456595
299430,-0.342642962932587,40.6804813057462
299540,-0.344507396221161,40.4014611548974
299650,-0.343678742647171,40.4014611548974
299750,-0.344714552164078,40.0666385794731
299860,-0.344093084335327,39.9550257023511
299970,-0.344093084335327,39.8434128252292
300080,-0.343678742647171,39.8992232777755
300190,-0.34388592839241,39.9550257023511
300300,-0.343471586704254,40.2898482777755
300410,-0.344300240278244,40.0108281269267
300520,-0.342642962932587,40.0666305515023
300630,-0.343678742647171,40.2340458531999
300740,-0.344300240278244,40.0666305515023
300850,-0.343678742647171,40.1224410040487
300960,-0.344300240278244,40.0108361548974
301070,-0.342850118875504,40.1224410040487
301170,-0.343471586704254,40.2340538811706
301280,-0.344300240278244,40.0108361548974
301390,-0.344300240278244,40.0666385794731
301500,-0.343678742647171,40.2898563057462
301610,-0.343471586704254,40.4014691828682
301720,-0.345128864049912,40.4014691828682
301830,-0.34388592839241,40.4014691828682
301940,-0.34305727481842,40.6246869091414
302050,-0.342850118875504,40.680489333717
302160,-0.343471586704254,40.9595094845657
302270,-0.344714552164078,40.5688844845657
302380,-0.34305727481842,40.6246869091414
302480,-0.344507396221161,40.2340619091414
302590,-0.343264430761337,40.289864333717
302700,-0.34243580698967,40.7920941828682
302810,-0.343264430761337,40.9036990320194
302920,-0.34243580698967,41.2385135794731
303030,-0.343678742647171,41.5175337303218
303140,-0.343264430761337,41.5733361548974
303250,-0.344507396221161,41.2943160040487
303360,-0.343471586704254,41.1269087303218
303470,-0.34388592839241,41.0710982777755
303580,-0.34388592839241,41.2943079760779
303690,-0.34388592839241,41.0710902498048
303800,-0.344921708106995,40.7920781269267
303900,-0.344300240278244,40.6246628252292
304010,-0.343678742647171,40.8478805515023
304120,-0.34388592839241,40.4572555515023
304230,-0.343471586704254,40.3456507023511
304340,-0.34388592839241,40.2898402498048
304450,-0.34305727481842,40.6246628252292
304560,-0.344093084335327,40.2898402498048
304670,-0.343471586704254,40.5688604006535
304780,-0.343471586704254,40.5130579760779
304890,-0.34388592839241,40.6246628252292
305000,-0.343678742647171,40.6804732777755
305110,-0.344507396221161,40.4014531269267
305210,-0.34305727481842,40.4572555515023
305320,-0.342228621244431,41.0152958531999
305430,-0.343471586704254,41.0710982777755
305540,-0.343678742647171,41.0152958531999
305650,-0.34305727481842,41.0710982777755
305760,-0.34305727481842,41.2385055515023
305870,-0.344507396221161,41.1269007023511
305980,-0.342642962932587,41.4617232777755
306090,-0.34305727481842,41.6849410040487
306200,-0.343678742647171,41.6291385794731
306310,-0.344714552164078,41.3501184286243
306420,-0.343471586704254,41.1269087303218
306530,-0.343678742647171,41.1827191828682
306630,-0.34388592839241,41.0711063057462
306740,-0.344093084335327,41.0153038811706
306850,-0.344714552164078,40.959501456595
306960,-0.343678742647171,40.7920941828682
307070,-0.344093084335327,40.568876456595
307180,-0.344093084335327,40.178251456595
307290,-0.343678742647171,40.3456667582926
307400,-0.345128864049912,39.8434369091414
307510,-0.342850118875504,40.1782594845657
307620,-0.344093084335327,39.9550417582926
307730,-0.344507396221161,39.899239333717
307840,-0.34388592839241,39.8434288811706
307940,-0.342642962932587,40.178251456595
308050,-0.343678742647171,40.178251456595
308160,-0.34388592839241,40.4014611548974
308270,-0.343471586704254,40.568876456595
308380,-0.341814309358597,40.8478966074438
308490,-0.343678742647171,41.0153119091414
308600,-0.344507396221161,40.7920941828682
308710,-0.34388592839241,40.6246788811706
308820,-0.34388592839241,41.0153038811706
308930,-0.344300240278244,40.959501456595
309040,-0.344507396221161,40.6246788811706
309150,-0.344300240278244,40.1224490320194
309260,-0.34305727481842,40.3456667582926
309360,-0.344921708106995,40.4572796354145
309470,-0.344921708106995,40.0108522108389
309580,-0.343471586704254,40.1224650879609
309690,-0.34305727481842,40.4572876633853
309800,-0.344507396221161,40.2340699371121
309910,-0.343471586704254,40.4014852388097
310020,-0.344093084335327,40.1224650879609
310130,-0.343264430761337,40.4014852388097
310240,-0.344507396221161,40.0108602388097
310350,-0.34388592839241,39.8992473616877
310460,-0.343678742647171,39.7318400879609
310570,-0.343678742647171,39.7876505405072
310670,-0.34305727481842,39.8434529650828
310780,-0.343678742647171,39.7876505405072
310890,-0.343678742647171,39.8992634176292
311000,-0.342850118875504,40.0108682667804
311110,-0.343678742647171,40.0666787193267
311220,-0.342021465301514,40.6805214455999
311330,-0.344300240278244,40.6247190210243
311440,-0.344921708106995,40.2898964455999
311550,-0.344093084335327,39.8434690210243
311660,-0.343264430761337,39.7876665964487
311770,-0.343264430761337,39.9550818981462
311880,-0.342642962932587,40.4573117472975
311990,-0.343471586704254,40.624727048995
312090,-0.343471586704254,40.8479447752682
312200,-0.342642962932587,41.5175818981462
312310,-0.342642962932587,41.7965940210243
312420,-0.34305727481842,42.0756141718731
312530,-0.34388592839241,41.6849891718731
312640,-0.344300240278244,41.5733843227219
312750,-0.344714552164078,41.3501746244194
312860,-0.344300240278244,41.1269568981462
312970,-0.343678742647171,41.2943721998438
313080,-0.343678742647171,41.517589926117
313190,-0.343471586704254,41.6292028032389
313300,-0.344093084335327,41.5734003786633
313400,-0.343471586704254,41.3501906803609
313510,-0.344093084335327,41.4617955295121
313620,-0.343264430761337,41.5734003786633
313730,-0.343471586704254,41.9082229540877
313840,-0.344093084335327,41.9082229540877
313950,-0.343471586704254,42.0756382557853
314060,-0.344093084335327,41.9640253786633
314170,-0.34388592839241,41.9640253786633
314280,-0.345336049795151,41.4617875015414
314390,-0.342850118875504,41.8524125015414
314500,-0.343678742647171,41.5734003786633
314610,-0.344300240278244,41.4059850769658
314720,-0.34388592839241,41.517589926117
314820,-0.34305727481842,41.6849971998438
314930,-0.343471586704254,41.908214926117
315040,-0.343471586704254,41.7408076523902
315150,-0.344714552164078,41.4059850769658
315260,-0.344300240278244,41.4059850769658
315370,-0.344093084335327,41.4617875015414
315480,-0.342850118875504,41.6849971998438
315590,-0.344093084335327,41.5175818981462
315700,-0.344093084335327,41.7965940210243
315810,-0.343471586704254,41.9082068981462
