time,raw,transformed
9310,-0.33187061548233,0
9420,-0.334149390459061,0
9530,-0.333113580942154,0
9640,-0.333527892827988,87.5
9750,-0.333942234516144,75.0001798237754
9860,-0.333320736885071,75.0002997062901
9960,-0.333942234516144,64.2859711768191
10070,-0.334149390459061,62.5
10180,-0.333527892827988,62.2223500978248
10290,-0.334563702344894,65.7141682765409
10400,-0.333527892827988,66.2337128529738
10510,-0.334563702344894,60.7142367818939
10620,-0.335392355918884,69.230869832468
10730,-0.334978014230728,65.5845684467378
10840,-0.334770858287811,63.0304853327753
10950,-0.333942234516144,63.0683304343277
11060,-0.334770858287811,60.9627416874441
11170,-0.334770858287811,59.0911072457711
11280,-0.334978014230728,56.938030571374
11380,-0.335185199975967,54.5456626080588
11490,-0.334149390459061,54.5456470387492
11600,-0.334978014230728,52.8927835566329
11710,-0.334356546401978,52.5693870692795
11820,-0.334770858287811,51.5153843471142
11930,-0.335185199975967,49.8183958254327
12040,-0.334770858287811,48.9512775912742
12150,-0.336428135633469,62.4998751201352
12260,-0.335392355918884,61.3837880815793
12370,-0.336013823747635,59.6981324655334
12480,-0.334978014230728,59.1665317964124
12590,-0.336428135633469,57.2579339965275
12690,-0.335392355918884,56.445168497905
12800,-0.335185199975967,55.8710520479293
12910,-0.336220979690552,54.4116060349943
13020,-0.336220979690552,53.0355569370841
13130,-0.335599511861801,52.2567789786222
13240,-0.336220979690552,51.0133494821231
13350,-0.336428135633469,49.6708929168033
13460,-0.336220979690552,48.5575338063245
13570,-0.335806667804718,47.8123370317761
13680,-0.335599511861801,47.2559276025245
13790,-0.336842477321625,51.8519787131773
13900,-0.334978014230728,51.8089187341077
14010,-0.336220979690552,51.0102402692381
14110,-0.334770858287811,51.1112531957951
14220,-0.336220979690552,50.3624665237097
14330,-0.335806667804718,49.8819440653782
14440,-0.336635321378708,48.9584748629998
14550,-0.336220979690552,48.2994665245682
14660,-0.336220979690552,47.6668185196724
14770,-0.336842477321625,46.7321750192865
14880,-0.335185199975967,46.6881750772948
14990,-0.336013823747635,46.2265583518928
15100,-0.337256789207459,50.6481608025962
15210,-0.337049633264542,49.8181922808068
15320,-0.336842477321625,49.1071492795123
15430,-0.335599511861801,48.9473722068713
15530,-0.337671101093292,52.6644907070737
15640,-0.336635321378708,52.1570726760378
15750,-0.336635321378708,51.6665685793687
15860,-0.337256789207459,50.968604024795
15970,-0.336428135633469,50.5864143819177
16080,-0.336842477321625,50.072050050471
16190,-0.337049633264542,49.502738270394
16300,-0.337049633264542,48.9509437758575
16410,-0.336013823747635,48.7602260961753
16520,-0.336428135633469,48.4395189330442
16630,-0.336635321378708,48.0613911086747
16740,-0.337671101093292,47.3648492085492
16840,-0.337463945150375,46.7531422966443
16950,-0.337256789207459,46.2226857959917
17060,-0.337878257036209,45.5175739741703
17170,-0.336842477321625,45.1431066800132
17280,-0.337463945150375,44.5944885542729
17390,-0.338085442781448,43.8786769113401
17500,-0.337671101093292,43.3013258993489
17610,-0.338914066553116,42.3847782101829
17720,-0.337049633264542,42.0162053629439
17830,-0.338706910610199,41.1966650318784
17940,-0.337256789207459,40.7953408533597
18050,-0.337463945150375,40.3478102919
18160,-0.338085442781448,39.7448932802232
18260,-0.336842477321625,39.4850928973378
18370,-0.337463945150375,39.0691437601692
18480,-0.337256789207459,38.7164565482893
18590,-0.337049633264542,38.4248244503496
18700,-0.337256789207459,38.0876509595455
18810,-0.337671101093292,37.6548367440956
18920,-0.337049633264542,37.3849632539999
19030,-0.337463945150375,37.020078833125
19140,-0.338085442781448,36.5133594540169
19250,-0.336842477321625,36.3140996936547
19360,-0.336428135633469,36.2168819137918
19470,-0.336013823747635,36.2184424989299
19570,-0.338085442781448,35.7414969498289
19680,-0.336842477321625,35.5585799139016
19790,-0.338706910610199,34.9576926901364
19900,-0.338499754667282,34.4154497502782
20010,-0.337049633264542,34.2055572894214
20120,-0.338292598724365,33.7271342161195
20230,-0.337256789207459,33.4832094293298
20340,-0.338292598724365,33.0212490423669
20450,-0.338499754667282,32.5241289990806
20560,-0.337049633264542,32.3425132983737
20670,-0.338085442781448,31.9479047463358
20780,-0.337463945150375,31.689390223966
20890,-0.337671101093292,31.3932276985089
20990,-0.338292598724365,30.9762834601807
21100,-0.337463945150375,30.7337979731622
21210,-0.338499754667282,30.2891078514429
21320,-0.336842477321625,30.1800299563904
21430,-0.337878257036209,29.869981783787
21540,-0.337671101093292,29.6056456618073
21650,-0.338914066553116,29.1067115229627
21760,-0.337878257036209,28.814084767327
21870,-0.337878257036209,28.5265033005808
21980,-0.33932837843895,27.9718872303469
22090,-0.338085442781448,27.6577917058042
22200,-0.338085442781448,27.3489750976403
22300,-0.338292598724365,27.0074273881527
22410,-0.338292598724365,26.6715250953518
22520,-0.338706910610199,26.2666152110355
22630,-0.338914066553116,25.8313350372342
22740,-0.338292598724365,25.51304402854
22850,-0.337671101093292,25.3089396763122
22960,-0.338499754667282,24.963772572404
23070,-0.338914066553116,24.5524606138312
23180,-0.337671101093292,24.3606445152853
23290,-0.336635321378708,23.5438787395782
23400,-0.337878257036209,22.9046765162661
23510,-0.337878257036209,22.0879158492725
23620,-0.338499754667282,21.2356394065718
23720,-0.338499754667282,20.4543894065718
23830,-0.337463945150375,19.7441607405591
23940,-0.338499754667282,18.9629107405591
24050,-0.339535564184189,18.0396129638712
24160,-0.33932837843895,17.045293853196
24270,-0.338706910610199,16.3350651871833
24380,-0.338499754667282,15.4827887444826
24490,-0.338292598724365,14.8435814124571
24600,-0.338085442781448,14.3819325241131
24710,-0.337463945150375,13.9557943027628
24820,-0.338292598724365,13.3520976377309
24930,-0.338706910610199,12.5353369707373
25030,-0.338292598724365,11.9316403057054
25140,-0.337878257036209,11.3989700833742
25250,-0.338085442781448,10.8662947523296
25360,-0.339121222496033,10.1915818620239
25470,-0.338292598724365,9.48135319601112
25580,-0.338292598724365,8.91316719797286
25690,-0.33932837843895,8.06089586398561
25800,-0.340157032012939,7.1375980872977
25910,-0.338499754667282,6.56941719797286
26020,-0.338706910610199,5.89469919895374
26130,-0.339121222496033,5.43305031060978
26240,-0.338706910610199,4.86486942128494
26350,-0.338706910610199,4.40322053294098
26450,-0.338706910610199,3.76401320091548
26560,-0.339535564184189,3.23133786987085
26670,-0.338914066553116,2.6276463135524
26780,-0.338292598724365,2.09497609122119
26890,-0.340157032012939,1.42025809220206
27000,-0.338292598724365,1.06514120483897
27110,-0.338499754667282,0.56798164950139
27220,-0.338706910610199,0.141843428151054
27330,-0.338706910610199,0
27440,-0.338085442781448,0
27550,-0.338914066553116,0
27660,-0.338292598724365,0
27760,-0.338499754667282,0
27870,-0.33932837843895,0
27980,-0.339535564184189,0
28090,-0.340364187955856,0
28200,-0.338499754667282,0
28310,-0.337671101093292,0
28420,-0.339535564184189,0
28530,-0.339742720127106,0
28640,-0.33932837843895,0
28750,-0.338499754667282,0
28860,-0.338706910610199,0
28970,-0.338085442781448,0
29080,-0.339535564184189,0
29180,-0.339742720127106,0
29290,-0.337671101093292,0
29400,-0.338706910610199,0
29510,-0.338292598724365,0
29620,-0.338706910610199,0
29730,-0.338914066553116,0
29840,-0.338706910610199,0
29950,-0.338292598724365,0
30060,-0.338706910610199,0
30170,-0.338914066553116,0
30280,-0.338292598724365,0
30390,-0.339121222496033,0
30490,-0.339742720127106,0
30600,-0.338499754667282,0
30710,-0.339742720127106,0
30820,-0.339121222496033,0
30930,-0.339742720127106,0
31040,-0.337878257036209,0
31150,-0.338085442781448,0
31260,-0.339121222496033,0
31370,-0.339121222496033,0
31480,-0.338085442781448,0
31590,-0.338292598724365,0
31700,-0.339121222496033,0
31810,-0.337878257036209,0
31910,-0.338499754667282,0
32020,-0.339121222496033,0
32130,-0.339121222496033,0
32240,-0.33932837843895,0
32350,-0.338292598724365,0
32460,-0.338499754667282,0
32570,-0.338914066553116,0
32680,-0.338292598724365,0
32790,-0.338706910610199,0
32900,-0.339121222496033,0
33010,-0.340364187955856,0
33120,-0.338292598724365,0
33220,-0.339121222496033,0
33330,-0.340157032012939,0
33440,-0.338499754667282,0
33550,-0.337256789207459,0
33660,-0.338085442781448,0
33770,-0.338914066553116,0
33880,-0.339949876070023,0
33990,-0.33932837843895,0
34100,-0.338085442781448,0
34210,-0.338706910610199,0
34320,-0.338499754667282,0
34430,-0.338706910610199,0
34540,-0.338085442781448,0
34640,-0.338914066553116,0
34750,-0.339535564184189,0
34860,-0.338914066553116,0
34970,-0.339949876070023,0
35080,-0.339121222496033,0
35190,-0.340985685586929,0
35300,-0.338914066553116,0
35410,-0.338706910610199,0
35520,-0.338706910610199,0
35630,-0.339121222496033,0
35740,-0.339742720127106,0
35850,-0.339121222496033,0
35950,-0.339742720127106,0
36060,-0.338914066553116,0
36170,-0.339121222496033,0
36280,-0.339535564184189,0
36390,-0.339121222496033,0
36500,-0.339121222496033,0
36610,-0.339535564184189,0
36720,-0.339535564184189,0
36830,-0.33932837843895,0
36940,-0.339535564184189,0
37050,-0.338499754667282,0
37160,-0.33932837843895,0
37270,-0.338085442781448,0
37370,-0.338914066553116,0
37480,-0.33932837843895,0
37590,-0.339742720127106,0
37700,-0.339121222496033,0
37810,-0.340157032012939,0
37920,-0.338914066553116,0
38030,-0.338914066553116,0
38140,-0.338499754667282,0
38250,-0.339535564184189,0
38360,-0.339535564184189,0
38470,-0.338914066553116,0
38580,-0.340985685586929,0
38680,-0.339535564184189,0
38790,-0.339742720127106,0
38900,-0.340157032012939,0
39010,-0.338914066553116,0
39120,-0.339535564184189,0
39230,-0.339742720127106,0
39340,-0.337878257036209,0
39450,-0.339535564184189,0
39560,-0.339535564184189,0
39670,-0.339742720127106,0
39780,-0.339121222496033,0
39890,-0.339535564184189,0
40000,-0.339535564184189,0
40100,-0.33932837843895,0
40210,-0.339949876070023,0
40320,-0.339949876070023,0
40430,-0.339121222496033,0
40540,-0.339742720127106,0
40650,-0.339121222496033,0
40760,-0.339949876070023,0
40870,-0.338914066553116,0
40980,-0.340157032012939,0
41090,-0.339121222496033,0
41200,-0.338499754667282,0
41310,-0.33932837843895,0
41410,-0.338706910610199,0
41520,-0.339121222496033,0
41630,-0.33932837843895,0
41740,-0.33932837843895,0
41850,-0.33932837843895,0
41960,-0.33932837843895,0
42070,-0.338706910610199,0
42180,-0.338706910610199,0
42290,-0.339535564184189,0
42400,-0.339535564184189,0
42510,-0.33932837843895,0
42620,-0.339949876070023,0
42730,-0.340157032012939,0
42830,-0.339949876070023,0
42940,-0.339742720127106,0
43050,-0.339121222496033,0
43160,-0.340157032012939,0
43270,-0.339535564184189,0
43380,-0.339535564184189,0
43490,-0.339535564184189,0
43600,-0.340157032012939,0
43710,-0.339742720127106,0
43820,-0.339949876070023,0
43930,-0.339949876070023,0
44040,-0.33932837843895,0
44140,-0.339742720127106,0
44250,-0.338499754667282,0
44360,-0.340364187955856,0
44470,-0.339121222496033,0
44580,-0.340985685586929,0
44690,-0.339121222496033,0
44800,-0.33932837843895,0
44910,-0.338292598724365,0
45020,-0.33932837843895,0
45130,-0.339535564184189,0
45240,-0.338706910610199,0
45350,-0.340157032012939,0
45460,-0.340157032012939,0
45560,-0.338914066553116,0
45670,-0.33932837843895,0
45780,-0.338499754667282,0
45890,-0.339949876070023,0
46000,-0.33932837843895,0
46110,-0.338914066553116,0
46220,-0.339535564184189,0
46330,-0.339121222496033,0
46440,-0.339742720127106,0
46550,-0.339949876070023,0
46660,-0.33932837843895,0
46770,-0.34077849984169,0
46870,-0.339949876070023,0
46980,-0.339535564184189,0
47090,-0.340571343898773,0
47200,-0.340157032012939,0
47310,-0.339949876070023,0
47420,-0.339535564184189,0
47530,-0.340364187955856,0
47640,-0.340157032012939,0
47750,-0.339949876070023,0
47860,-0.338706910610199,0
47970,-0.338914066553116,0
48080,-0.338914066553116,0
48190,-0.339121222496033,0
48290,-0.338706910610199,0
48400,-0.340364187955856,0
48510,-0.33932837843895,0
48620,-0.339949876070023,0
48730,-0.33932837843895,0
48840,-0.338914066553116,0
48950,-0.33932837843895,0
49060,-0.339949876070023,0
49170,-0.339535564184189,0
49280,-0.339535564184189,0
49390,-0.339949876070023,0
49500,-0.34077849984169,0
49600,-0.34077849984169,0
49710,-0.338706910610199,0
49820,-0.339535564184189,0
49930,-0.340571343898773,0
50040,-0.33932837843895,0
50150,-0.339742720127106,0
50260,-0.339949876070023,0
50370,-0.340571343898773,0
50480,-0.340571343898773,0
50590,-0.338914066553116,0
50700,-0.33932837843895,0
50810,-0.339535564184189,0
50920,-0.339535564184189,0
51020,-0.339949876070023,0
51130,-0.339949876070023,0
51240,-0.340157032012939,0
51350,-0.339742720127106,0
51460,-0.33932837843895,0
51570,-0.338914066553116,0
51680,-0.340157032012939,0
51790,-0.339121222496033,0
51900,-0.339949876070023,0
52010,-0.338499754667282,0
52120,-0.339121222496033,0
52230,-0.339949876070023,0
52330,-0.339535564184189,0
52440,-0.339121222496033,0
52550,-0.341399997472763,0
52660,-0.340571343898773,0
52770,-0.339949876070023,0
52880,-0.339949876070023,0
52990,-0.339535564184189,0
53100,-0.340157032012939,0
53210,-0.340157032012939,0
53320,-0.340571343898773,0
53430,-0.33932837843895,0
53540,-0.340157032012939,0
53650,-0.340364187955856,0
53750,-0.339742720127106,0
53860,-0.338914066553116,0
53970,-0.340364187955856,0
54080,-0.341399997472763,0
54190,-0.339742720127106,0
54300,-0.33932837843895,0
54410,-0.339949876070023,0
54520,-0.338914066553116,0
54630,-0.33932837843895,0
54740,-0.340364187955856,0
54850,-0.339535564184189,0
54960,-0.339949876070023,0
55060,-0.340571343898773,0
55170,-0.340364187955856,0
55280,-0.339949876070023,0
55390,-0.340157032012939,0
55500,-0.340364187955856,0
55610,-0.33932837843895,0
55720,-0.340157032012939,0
55830,-0.339742720127106,0
55940,-0.340364187955856,0
56050,-0.34077849984169,0
56160,-0.340364187955856,0
56270,-0.340157032012939,0
56380,-0.339535564184189,0
56480,-0.339742720127106,0
56590,-0.339742720127106,0
56700,-0.339949876070023,0
56810,-0.339535564184189,0
56920,-0.33932837843895,0
57030,-0.340364187955856,0
57140,-0.339121222496033,0
57250,-0.342021465301514,0
57360,-0.340364187955856,0
57470,-0.340364187955856,0
57580,-0.339949876070023,0
57690,-0.339742720127106,0
57790,-0.339949876070023,0
57900,-0.340157032012939,0
58010,-0.340157032012939,0
58120,-0.339742720127106,0
58230,-0.34077849984169,0
58340,-0.339949876070023,0
58450,-0.339535564184189,0
58560,-0.339742720127106,0
58670,-0.339121222496033,0
58780,-0.34077849984169,0
58890,-0.340985685586929,0
59000,-0.340571343898773,0
59110,-0.340985685586929,0
59210,-0.339121222496033,0
59320,-0.339535564184189,0
59430,-0.339742720127106,0
59540,-0.339949876070023,0
59650,-0.33932837843895,0
59760,-0.340571343898773,0
59870,-0.339742720127106,0
59980,-0.340157032012939,0
60090,-0.338914066553116,0
60200,-0.340157032012939,0
60310,-0.338914066553116,0
60420,-0.340157032012939,0
60520,-0.339535564184189,0
60630,-0.339535564184189,0
60740,-0.341192841529846,0
60850,-0.341399997472763,0
60960,-0.338706910610199,0
61070,-0.340157032012939,0
61180,-0.338706910610199,0
61290,-0.338706910610199,0
61400,-0.34077849984169,0
61510,-0.33932837843895,0
61620,-0.340364187955856,0
61730,-0.339535564184189,0
61840,-0.338914066553116,0
61940,-0.338914066553116,0
62050,-0.341399997472763,0
62160,-0.34077849984169,0
62270,-0.339742720127106,0
62380,-0.340985685586929,0
62490,-0.34160715341568,0
62600,-0.34077849984169,0
62710,-0.339742720127106,0
62820,-0.340364187955856,0
62930,-0.340157032012939,0
63040,-0.340157032012939,0
63150,-0.341192841529846,0
63250,-0.340157032012939,0
63360,-0.340364187955856,0
63470,-0.340364187955856,0
63580,-0.34077849984169,0
63690,-0.340157032012939,0
63800,-0.339949876070023,0
63910,-0.338706910610199,0
64020,-0.34077849984169,0
64130,-0.340571343898773,0
64240,-0.340157032012939,0
64350,-0.339949876070023,0
64460,-0.34077849984169,0
64570,-0.34077849984169,0
64670,-0.339949876070023,0
64780,-0.339949876070023,0
64890,-0.339949876070023,0
65000,-0.340571343898773,0
65110,-0.341192841529846,0
65220,-0.340571343898773,0
65330,-0.339742720127106,0
65440,-0.339535564184189,0
65550,-0.340364187955856,0
65660,-0.340157032012939,0
65770,-0.34077849984169,0
65880,-0.340571343898773,0
65980,-0.34077849984169,0
66090,-0.339742720127106,0
66200,-0.339535564184189,0
66310,-0.340985685586929,0
66420,-0.340985685586929,0
66530,-0.339742720127106,0
66640,-0.340364187955856,0
66750,-0.33932837843895,0
66860,-0.339949876070023,0
66970,-0.341399997472763,0
67080,-0.340571343898773,0
67190,-0.340985685586929,0
67300,-0.34077849984169,0
67400,-0.341399997472763,0
67510,-0.340364187955856,0
67620,-0.339949876070023,0
67730,-0.340364187955856,0
67840,-0.339535564184189,0
67950,-0.339742720127106,0
68060,-0.340571343898773,0
68170,-0.34077849984169,0
68280,-0.34077849984169,0
68390,-0.339742720127106,0
68500,-0.34077849984169,0
68610,-0.339121222496033,0
68710,-0.339949876070023,0
68820,-0.33932837843895,0
68930,-0.339742720127106,0
69040,-0.340571343898773,0
69150,-0.339742720127106,0
69260,-0.340364187955856,0
69370,-0.339535564184189,0
69480,-0.339535564184189,0
69590,-0.340571343898773,0
69700,-0.33932837843895,0
69810,-0.339742720127106,0
69920,-0.340364187955856,0
70030,-0.339949876070023,0
70130,-0.34077849984169,0
70240,-0.340364187955856,0
70350,-0.340157032012939,0
70460,-0.340985685586929,0
70570,-0.339949876070023,0
70680,-0.34077849984169,0
70790,-0.340364187955856,0
70900,-0.341192841529846,0
71010,-0.340571343898773,0
71120,-0.340985685586929,0
71230,-0.33932837843895,0
71340,-0.338914066553116,0
71440,-0.340157032012939,0
71550,-0.340571343898773,0
71660,-0.339121222496033,0
71770,-0.339535564184189,0
71880,-0.340571343898773,0
71990,-0.339742720127106,0
72100,-0.340364187955856,0
72210,-0.340157032012939,0
72320,-0.339742720127106,0
72430,-0.33932837843895,0
72540,-0.339535564184189,0
72650,-0.34077849984169,0
72760,-0.340364187955856,0
72860,-0.339535564184189,0
72970,-0.340157032012939,0
73080,-0.34077849984169,0
73190,-0.339742720127106,0
73300,-0.340157032012939,0
73410,-0.339535564184189,0
73520,-0.340571343898773,0
73630,-0.340364187955856,0
73740,-0.340985685586929,0
73850,-0.339535564184189,0
73960,-0.340364187955856,0
74070,-0.340571343898773,0
74170,-0.341399997472763,0
74280,-0.339535564184189,0
74390,-0.34077849984169,0
74500,-0.340364187955856,0
74610,-0.339535564184189,0
74720,-0.341814309358597,0
74830,-0.339949876070023,0
74940,-0.340985685586929,0
75050,-0.33932837843895,0
75170,-0.340571343898773,0
75270,-0.340157032012939,0
75380,-0.339535564184189,0
75490,-0.34160715341568,0
75590,-0.340571343898773,0
75700,-0.340157032012939,0
75810,-0.340571343898773,0
75920,-0.340571343898773,0
76030,-0.339742720127106,0
76140,-0.34077849984169,0
76250,-0.340571343898773,0
76360,-0.339949876070023,0
76470,-0.339742720127106,0
76580,-0.339742720127106,0
76690,-0.338706910610199,0
76800,-0.339742720127106,0
76900,-0.340985685586929,0
77010,-0.340571343898773,0
77120,-0.34077849984169,0
77230,-0.340157032012939,0
77340,-0.340985685586929,0
77450,-0.340571343898773,0
77560,-0.340571343898773,0
77670,-0.341192841529846,0
77780,-0.33932837843895,0
77890,-0.340571343898773,0
78000,-0.339535564184189,0
78110,-0.34077849984169,0
78220,-0.340364187955856,0
78320,-0.339949876070023,0
78430,-0.34077849984169,0
78540,-0.339949876070023,0
78650,-0.340985685586929,0
78760,-0.340571343898773,0
78870,-0.340157032012939,0
78980,-0.34077849984169,0
79090,-0.340985685586929,0
79200,-0.340364187955856,0
79310,-0.339121222496033,0
79420,-0.341192841529846,0
79530,-0.34077849984169,0
79630,-0.339949876070023,0
79740,-0.339121222496033,0
79850,-0.342021465301514,0
79960,-0.339949876070023,0
80070,-0.339121222496033,0
80180,-0.34077849984169,0
80290,-0.339742720127106,0
80400,-0.340571343898773,0
80510,-0.340571343898773,0
80620,-0.339742720127106,0
80730,-0.339949876070023,0
80840,-0.34077849984169,0
80950,-0.340571343898773,0
81050,-0.339742720127106,0
81160,-0.339949876070023,0
81270,-0.34077849984169,0
81380,-0.339742720127106,0
81490,-0.341192841529846,0
81600,-0.340571343898773,0
81710,-0.34077849984169,0
81820,-0.341399997472763,0
81930,-0.340571343898773,0
82040,-0.340157032012939,0
82150,-0.340364187955856,0
82260,-0.339949876070023,0
82360,-0.339949876070023,0
82470,-0.340571343898773,0
82580,-0.340985685586929,0
82690,-0.338706910610199,0
82800,-0.33932837843895,0
82910,-0.340364187955856,0
83020,-0.339742720127106,0
83130,-0.340364187955856,0
83240,-0.339949876070023,0
83350,-0.339742720127106,0
83460,-0.340571343898773,0
83570,-0.341399997472763,0
83680,-0.33932837843895,0
83780,-0.340571343898773,0
83890,-0.33932837843895,0
84000,-0.340364187955856,0
84110,-0.341192841529846,0
84220,-0.339949876070023,0
84330,-0.34077849984169,0
84440,-0.340985685586929,0
84550,-0.340985685586929,0
84660,-0.340364187955856,0
84770,-0.340571343898773,0
84880,-0.34160715341568,0
84990,-0.34077849984169,0
85090,-0.340985685586929,0
85200,-0.340157032012939,0
85310,-0.340985685586929,0
85420,-0.340571343898773,0
85530,-0.340157032012939,0
85640,-0.339535564184189,0
85750,-0.340571343898773,0
85860,-0.340364187955856,0
85970,-0.340571343898773,0
86080,-0.34077849984169,0
86190,-0.340157032012939,0
86300,-0.339742720127106,0
86410,-0.340157032012939,0
86510,-0.340364187955856,0
86620,-0.340985685586929,0
86730,-0.340571343898773,0
86840,-0.339742720127106,0
86950,-0.340571343898773,0
87060,-0.341814309358597,0
87170,-0.341399997472763,0
87280,-0.33932837843895,0
87390,-0.340364187955856,0
87500,-0.339742720127106,0
87610,-0.340364187955856,0
87720,-0.340157032012939,0
87820,-0.339949876070023,0
87930,-0.340364187955856,0
88040,-0.339742720127106,0
88150,-0.33932837843895,0
88260,-0.34077849984169,0
88370,-0.34160715341568,0
88480,-0.340364187955856,0
88590,-0.340364187955856,0
88700,-0.340571343898773,0
88810,-0.340571343898773,0
88920,-0.340157032012939,0
89030,-0.340157032012939,0
89140,-0.340364187955856,0
89240,-0.339535564184189,0
89350,-0.339742720127106,0
89460,-0.340364187955856,0
89570,-0.340985685586929,0
89680,-0.340571343898773,0
89790,-0.340364187955856,0
89900,-0.340985685586929,0
90010,-0.339121222496033,0
90120,-0.341399997472763,0
90230,-0.34077849984169,0
90340,-0.340364187955856,0
90450,-0.340364187955856,0
90550,-0.340985685586929,0
90660,-0.340364187955856,0
90770,-0.338706910610199,0
90880,-0.339742720127106,0
90990,-0.34077849984169,0
91100,-0.340364187955856,0
91210,-0.339742720127106,0
91320,-0.339121222496033,0
91430,-0.340157032012939,0
91540,-0.34077849984169,0
91650,-0.33932837843895,0
91760,-0.34077849984169,0
91870,-0.339535564184189,0
91970,-0.340985685586929,0
92080,-0.340571343898773,0
92190,-0.340571343898773,0
92300,-0.34160715341568,0
92410,-0.341399997472763,0
92520,-0.34077849984169,0
92630,-0.340157032012939,0
92740,-0.340157032012939,0
92850,-0.340571343898773,0
92960,-0.340157032012939,0
93070,-0.339949876070023,0
93180,-0.340364187955856,0
93290,-0.34077849984169,0
93390,-0.340571343898773,0
93500,-0.34077849984169,0
93610,-0.340364187955856,0
93720,-0.340364187955856,0
93830,-0.341192841529846,0
93940,-0.339535564184189,0
94050,-0.341192841529846,0
94160,-0.341814309358597,0
94270,-0.341399997472763,0
94380,-0.339949876070023,0
94490,-0.34077849984169,0
94600,-0.340364187955856,0
94700,-0.34077849984169,0
94810,-0.339949876070023,0
94920,-0.34077849984169,0
95030,-0.34077849984169,0
95140,-0.34077849984169,0
95250,-0.339742720127106,0
95360,-0.340364187955856,0
95470,-0.340571343898773,0
95580,-0.340985685586929,0
95690,-0.340157032012939,0
95800,-0.340157032012939,0
95910,-0.340157032012939,0
96020,-0.34077849984169,0
96120,-0.340364187955856,0
96230,-0.341399997472763,0
96340,-0.339949876070023,0
96450,-0.340157032012939,0
96560,-0.341192841529846,0
96670,-0.34077849984169,0
96780,-0.339949876070023,0
96890,-0.340985685586929,0
97000,-0.340364187955856,0
97110,-0.339121222496033,0
97220,-0.340364187955856,0
97330,-0.33932837843895,0
97430,-0.341192841529846,0
97540,-0.340364187955856,0
97650,-0.341192841529846,0
97760,-0.339949876070023,0
97870,-0.340985685586929,0
97980,-0.340157032012939,0
98090,-0.340157032012939,0
98200,-0.340985685586929,0
98310,-0.340364187955856,0
98420,-0.340364187955856,0
98530,-0.340364187955856,0
98640,-0.339535564184189,0
98750,-0.341192841529846,0
98850,-0.340571343898773,0
98960,-0.339742720127106,0
99070,-0.340985685586929,0
99180,-0.339742720127106,0
99290,-0.33932837843895,0
99400,-0.34077849984169,0
99510,-0.340364187955856,0
99620,-0.339535564184189,0
99730,-0.340157032012939,0
99840,-0.340157032012939,0
99950,-0.340364187955856,0
100060,-0.340571343898773,0
100160,-0.341192841529846,0
100270,-0.341399997472763,0
100380,-0.34077849984169,0
100490,-0.340364187955856,0
100600,-0.341814309358597,0
100710,-0.340571343898773,0
100820,-0.338292598724365,0
100930,-0.339949876070023,0
101040,-0.340571343898773,0
101150,-0.340571343898773,0
101260,-0.340985685586929,0
101370,-0.340157032012939,0
101480,-0.339949876070023,0
101580,-0.340157032012939,0
101690,-0.339949876070023,0
101800,-0.340364187955856,0
101910,-0.341814309358597,0
102020,-0.340571343898773,0
102130,-0.34077849984169,0
102240,-0.340157032012939,0
102350,-0.341192841529846,0
102460,-0.339949876070023,0
102570,-0.33932837843895,0
102680,-0.339742720127106,0
102790,-0.340364187955856,0
102890,-0.341399997472763,0
103000,-0.340985685586929,0
103110,-0.339742720127106,0
103220,-0.34077849984169,0
103330,-0.341192841529846,0
103440,-0.341399997472763,0
103550,-0.340985685586929,0
103660,-0.340571343898773,0
103770,-0.34077849984169,0
103880,-0.339742720127106,0
103990,-0.339742720127106,0
104100,-0.340985685586929,0
104210,-0.339535564184189,0
104310,-0.339742720127106,0
104420,-0.341192841529846,0
104530,-0.340985685586929,0
104640,-0.34077849984169,0
104750,-0.340157032012939,0
104860,-0.340571343898773,0
104980,-0.339742720127106,0
105080,-0.340364187955856,0
105190,-0.340985685586929,0
105300,-0.340571343898773,0
105410,-0.340157032012939,0
105520,-0.340157032012939,0
105620,-0.34077849984169,0
105730,-0.339949876070023,0
105840,-0.341192841529846,0
105950,-0.34077849984169,0
106060,-0.339535564184189,0
106170,-0.339535564184189,0
106280,-0.339949876070023,0
106390,-0.340157032012939,0
106500,-0.340364187955856,0
106610,-0.341192841529846,0
106720,-0.34160715341568,0
106830,-0.341399997472763,0
106940,-0.340157032012939,0
107040,-0.341192841529846,0
107150,-0.342228621244431,0
107260,-0.340985685586929,0
107370,-0.339949876070023,0
107480,-0.34160715341568,0
107590,-0.340364187955856,0
107700,-0.340157032012939,0
107810,-0.340364187955856,0
107920,-0.340364187955856,0
108030,-0.339949876070023,0
108140,-0.340571343898773,0
108250,-0.340157032012939,0
108350,-0.340985685586929,0
108460,-0.339949876070023,0
108570,-0.340157032012939,0
108680,-0.34077849984169,0
108790,-0.34160715341568,0
108900,-0.340364187955856,0
109010,-0.341192841529846,0
109120,-0.340571343898773,0
109230,-0.341192841529846,0
109340,-0.34160715341568,0
109450,-0.340985685586929,0
109560,-0.340157032012939,0
109670,-0.340571343898773,0
109770,-0.340157032012939,0
109880,-0.340364187955856,0
109990,-0.340985685586929,0
110100,-0.339949876070023,0
110210,-0.34077849984169,0
110320,-0.340364187955856,0
110430,-0.341192841529846,0
110540,-0.341399997472763,0
110650,-0.340364187955856,0
110760,-0.340157032012939,0
110870,-0.340364187955856,0
110980,-0.341399997472763,0
111080,-0.340985685586929,0
111190,-0.339949876070023,0
111300,-0.340571343898773,0
111410,-0.340157032012939,0
111520,-0.341192841529846,0
111630,-0.342228621244431,0
111740,-0.341192841529846,0
111850,-0.341192841529846,0
111960,-0.339742720127106,0
112070,-0.339535564184189,0
112180,-0.341399997472763,0
112290,-0.341192841529846,0
112400,-0.340364187955856,0
112500,-0.340571343898773,0
112610,-0.339949876070023,0
112720,-0.340985685586929,0
112830,-0.341192841529846,0
112940,-0.340571343898773,0
113050,-0.339121222496033,0
113160,-0.340364187955856,0
113270,-0.340985685586929,0
113380,-0.340571343898773,0
113490,-0.342021465301514,0
113600,-0.341399997472763,0
113710,-0.339535564184189,0
113810,-0.339535564184189,0
113920,-0.339949876070023,0
114030,-0.342021465301514,0
114140,-0.340985685586929,0
114250,-0.340157032012939,0
114360,-0.339742720127106,0
114470,-0.340364187955856,0
114580,-0.340157032012939,0
114690,-0.340985685586929,0
114800,-0.340364187955856,0
114910,-0.339742720127106,0
115020,-0.34077849984169,0
115130,-0.341399997472763,0
115230,-0.341192841529846,0
115340,-0.340985685586929,0
115450,-0.341192841529846,0
115560,-0.339742720127106,0
115670,-0.34160715341568,0
115780,-0.340364187955856,0
115890,-0.339535564184189,0
116000,-0.340364187955856,0
116110,-0.340985685586929,0
116220,-0.339742720127106,0
116330,-0.339949876070023,0
116440,-0.341399997472763,0
116540,-0.340364187955856,0
116650,-0.341399997472763,0
116760,-0.340985685586929,0
116870,-0.34077849984169,0
116980,-0.339535564184189,0
117090,-0.340985685586929,0
117200,-0.340571343898773,0
117310,-0.342021465301514,0
117420,-0.340571343898773,0
117530,-0.340571343898773,0
117640,-0.340364187955856,0
117750,-0.341399997472763,0
117860,-0.340571343898773,0
117960,-0.341192841529846,0
118070,-0.341399997472763,0
118180,-0.340571343898773,0
118290,-0.340364187955856,0
118400,-0.341399997472763,0
118510,-0.34077849984169,0
118620,-0.340157032012939,0
118730,-0.339949876070023,0
118840,-0.341192841529846,0
118950,-0.34077849984169,0
119060,-0.340571343898773,0
119170,-0.34160715341568,0
119270,-0.340985685586929,0
119380,-0.339742720127106,0
119490,-0.341814309358597,0
119600,-0.341814309358597,0
119710,-0.339949876070023,0
119820,-0.340571343898773,0
119930,-0.340985685586929,0
120040,-0.34077849984169,0
120150,-0.341399997472763,0
120260,-0.340364187955856,0
120370,-0.340985685586929,0
120480,-0.341192841529846,0
120590,-0.339742720127106,0
120690,-0.340571343898773,0
120800,-0.34077849984169,0
120910,-0.340571343898773,0
121020,-0.340364187955856,0
121130,-0.340157032012939,0
121240,-0.340157032012939,0
121350,-0.341192841529846,0
121460,-0.34160715341568,0
121570,-0.340157032012939,0
121680,-0.339742720127106,0
121790,-0.34077849984169,0
121900,-0.339742720127106,0
122000,-0.341192841529846,0
122110,-0.340985685586929,0
122220,-0.340364187955856,0
122330,-0.340571343898773,0
122440,-0.341399997472763,0
122550,-0.340985685586929,0
122660,-0.340364187955856,0
122770,-0.340571343898773,0
122880,-0.341192841529846,0
122990,-0.340985685586929,0
123100,-0.341192841529846,0
123210,-0.341192841529846,0
123320,-0.339949876070023,0
123420,-0.339535564184189,0
123530,-0.340571343898773,0
123640,-0.340157032012939,0
123750,-0.340157032012939,0
123860,-0.340985685586929,0
123970,-0.339949876070023,0
124080,-0.340157032012939,0
124190,-0.340364187955856,0
124300,-0.341399997472763,0
124410,-0.340157032012939,0
124520,-0.340571343898773,0
124630,-0.340364187955856,0
124730,-0.339535564184189,0
124840,-0.339742720127106,0
124950,-0.342228621244431,0
125060,-0.341192841529846,0
125170,-0.340364187955856,0
125280,-0.340157032012939,0
125390,-0.341192841529846,0
125500,-0.339742720127106,0
125610,-0.340571343898773,0
125720,-0.340571343898773,0
125830,-0.340571343898773,0
125940,-0.339742720127106,0
126050,-0.340571343898773,0
126150,-0.340985685586929,0
126260,-0.34077849984169,0
126370,-0.339949876070023,0
126480,-0.340571343898773,0
126590,-0.340571343898773,0
126700,-0.340985685586929,0
126810,-0.340364187955856,0
126920,-0.340985685586929,0
127030,-0.340571343898773,0
127140,-0.340985685586929,0
127250,-0.34077849984169,0
127360,-0.340985685586929,0
127460,-0.340571343898773,0
127570,-0.340571343898773,0
127680,-0.340985685586929,0
127790,-0.340157032012939,0
127900,-0.340985685586929,0
128010,-0.340364187955856,0
128120,-0.341192841529846,0
128230,-0.340985685586929,0
128340,-0.339535564184189,0
128450,-0.341192841529846,0
128560,-0.340364187955856,0
128670,-0.34160715341568,0
128780,-0.340157032012939,0
128880,-0.341399997472763,0
128990,-0.341192841529846,0
129100,-0.342021465301514,0
129210,-0.340157032012939,0
129320,-0.340571343898773,0
129430,-0.340157032012939,0
129540,-0.340571343898773,0
129650,-0.34243580698967,0
129760,-0.340364187955856,0
129870,-0.340985685586929,0
129980,-0.340157032012939,0
130090,-0.34077849984169,0
130190,-0.339535564184189,0
130300,-0.34077849984169,0
130410,-0.341399997472763,0
130520,-0.33932837843895,0
130630,-0.340571343898773,0
130740,-0.340985685586929,0
130850,-0.340364187955856,0
130960,-0.34077849984169,0
131070,-0.340364187955856,0
131180,-0.340571343898773,0
131290,-0.340157032012939,0
131400,-0.341192841529846,0
131510,-0.340985685586929,0
131610,-0.341192841529846,0
131720,-0.341399997472763,0
131830,-0.34077849984169,0
131940,-0.340571343898773,0
132050,-0.34077849984169,0
132160,-0.340571343898773,0
132270,-0.33932837843895,0
132380,-0.34077849984169,0
132490,-0.341192841529846,0
132600,-0.340571343898773,0
132710,-0.341399997472763,0
132820,-0.34160715341568,0
132920,-0.34077849984169,0
133030,-0.340157032012939,0
133140,-0.340157032012939,0
133250,-0.340571343898773,0
133360,-0.340157032012939,0
133470,-0.34160715341568,0
133580,-0.341814309358597,0
133690,-0.340364187955856,0
133800,-0.341192841529846,0
133910,-0.339949876070023,0
134020,-0.340985685586929,0
134130,-0.339949876070023,0
134240,-0.34160715341568,0
134340,-0.341192841529846,0
134450,-0.33932837843895,0
134560,-0.34160715341568,0
134670,-0.340157032012939,0
134780,-0.340157032012939,0
134890,-0.339742720127106,0
135000,-0.340157032012939,0
135110,-0.340157032012939,0
135220,-0.340364187955856,0
135330,-0.34160715341568,0
135440,-0.340571343898773,0
135550,-0.340157032012939,0
135650,-0.34077849984169,0
135760,-0.340571343898773,0
135870,-0.340571343898773,0
135980,-0.340157032012939,0
136090,-0.340364187955856,0
136200,-0.339535564184189,0
136310,-0.34077849984169,0
136420,-0.340571343898773,0
136530,-0.341399997472763,0
136640,-0.340157032012939,0
136750,-0.340571343898773,0
136860,-0.34077849984169,0
136970,-0.339949876070023,0
137070,-0.339949876070023,0
137180,-0.341399997472763,0
137290,-0.340157032012939,0
137400,-0.340571343898773,0
137510,-0.340571343898773,0
137620,-0.339535564184189,0
137730,-0.340985685586929,0
137840,-0.341399997472763,0
137950,-0.34077849984169,0
138060,-0.340571343898773,0
138170,-0.34077849984169,0
138280,-0.339535564184189,0
138380,-0.340985685586929,0
138490,-0.340571343898773,0
138600,-0.34160715341568,0
138710,-0.340985685586929,0
138820,-0.34160715341568,0
138930,-0.34077849984169,0
139040,-0.341399997472763,0
139150,-0.34077849984169,0
139260,-0.340157032012939,0
139370,-0.340157032012939,0
139480,-0.34160715341568,0
139590,-0.342021465301514,0
139700,-0.340364187955856,0
139800,-0.340364187955856,0
139910,-0.341192841529846,0
140020,-0.340157032012939,0
140130,-0.34077849984169,0
140240,-0.341192841529846,0
140350,-0.340157032012939,0
140460,-0.340364187955856,0
140570,-0.340364187955856,0
140680,-0.341814309358597,0
140790,-0.34077849984169,0
140900,-0.341192841529846,0
141010,-0.340985685586929,0
141110,-0.341399997472763,0
141220,-0.340364187955856,0
141330,-0.34077849984169,0
141440,-0.340985685586929,0
141550,-0.340364187955856,0
141660,-0.34243580698967,0
141770,-0.340985685586929,0
141880,-0.34160715341568,0
141990,-0.340157032012939,0
142100,-0.34077849984169,0
142210,-0.341192841529846,0
142320,-0.341192841529846,0
142430,-0.341399997472763,0
142530,-0.340364187955856,0
142640,-0.340571343898773,0
142750,-0.340571343898773,0
142860,-0.340985685586929,0
142970,-0.340364187955856,0
143080,-0.34077849984169,0
143190,-0.34077849984169,0
143300,-0.34160715341568,0
143410,-0.340985685586929,0
143520,-0.341192841529846,0
143630,-0.340985685586929,0
143740,-0.340985685586929,0
143840,-0.341192841529846,0
143950,-0.34077849984169,0
144060,-0.340364187955856,0
144170,-0.342228621244431,0
144280,-0.34077849984169,0
144390,-0.340364187955856,0
144500,-0.340157032012939,0
144610,-0.339742720127106,0
144720,-0.340985685586929,0
144830,-0.342228621244431,0
144940,-0.339949876070023,0
145050,-0.341399997472763,0
145160,-0.34160715341568,0
145260,-0.341192841529846,0
145370,-0.34160715341568,0
145480,-0.341192841529846,0
145590,-0.34243580698967,0
145700,-0.339121222496033,0
145810,-0.340571343898773,0
145920,-0.34077849984169,0
146030,-0.34077849984169,0
146140,-0.340157032012939,0
146250,-0.339535564184189,0
146360,-0.341399997472763,0
146470,-0.340571343898773,0
146570,-0.34160715341568,0
146680,-0.340571343898773,0
146790,-0.341192841529846,0
146900,-0.342228621244431,0
147010,-0.339949876070023,0
147120,-0.341192841529846,0
147230,-0.34077849984169,0
147340,-0.341192841529846,0
147450,-0.342021465301514,0
147560,-0.340157032012939,0
147670,-0.340364187955856,0
147780,-0.34077849984169,0
147890,-0.339949876070023,0
147990,-0.340985685586929,0
148100,-0.341192841529846,0
148210,-0.341192841529846,0
148320,-0.340157032012939,0
148430,-0.341192841529846,0
148540,-0.339742720127106,0
148650,-0.341399997472763,0
148760,-0.340157032012939,0
148870,-0.340985685586929,0
148980,-0.341399997472763,0
149090,-0.340364187955856,0
149200,-0.340985685586929,0
149300,-0.341399997472763,0
149410,-0.34077849984169,0
149520,-0.340985685586929,0
149630,-0.340985685586929,0
149740,-0.34077849984169,0
149850,-0.341192841529846,0
149960,-0.34077849984169,0
150070,-0.339742720127106,0
150180,-0.339949876070023,0
150290,-0.340985685586929,0
150400,-0.340985685586929,0
150510,-0.341399997472763,0
150620,-0.340364187955856,0
150720,-0.339949876070023,0
150830,-0.339742720127106,0
150940,-0.340364187955856,0
151050,-0.34077849984169,0
151160,-0.340985685586929,0
151270,-0.340985685586929,0
151380,-0.340157032012939,0
151490,-0.340571343898773,0
151600,-0.340364187955856,0
151710,-0.339949876070023,0
151820,-0.340985685586929,0
151930,-0.340364187955856,0
152030,-0.34160715341568,0
152140,-0.340364187955856,0
152250,-0.341399997472763,0
152360,-0.34077849984169,0
152470,-0.340571343898773,0
152580,-0.340571343898773,0
152690,-0.341192841529846,0
152800,-0.340571343898773,0
152910,-0.340157032012939,0
153020,-0.340985685586929,0
153130,-0.34077849984169,0
153240,-0.340985685586929,0
153350,-0.341399997472763,0
153450,-0.339949876070023,0
153560,-0.340157032012939,0
153670,-0.340157032012939,0
153780,-0.341192841529846,0
153890,-0.340985685586929,0
154000,-0.34160715341568,0
154110,-0.340985685586929,0
154220,-0.340364187955856,0
154330,-0.340985685586929,0
154440,-0.341814309358597,0
154550,-0.339949876070023,0
154660,-0.340157032012939,0
154760,-0.342228621244431,0
154870,-0.34160715341568,0
154980,-0.340571343898773,0
155090,-0.340985685586929,0
155200,-0.340571343898773,0
155310,-0.340985685586929,0
155420,-0.342850118875504,0
155530,-0.340364187955856,0
155640,-0.339742720127106,0
155750,-0.340571343898773,0
155860,-0.341192841529846,0
155970,-0.341399997472763,0
156080,-0.340364187955856,0
156180,-0.34077849984169,0
156290,-0.339949876070023,0
156400,-0.340157032012939,0
156510,-0.341192841529846,0
156620,-0.341399997472763,0
156730,-0.339949876070023,0
156840,-0.340364187955856,0
156950,-0.34077849984169,0
157060,-0.34077849984169,0
157170,-0.34077849984169,0
157280,-0.341192841529846,0
157390,-0.341814309358597,0
157490,-0.340571343898773,0
157600,-0.339949876070023,0
157710,-0.340571343898773,0
157820,-0.340364187955856,0
157930,-0.34077849984169,0
158040,-0.341814309358597,0
158150,-0.34077849984169,0
158260,-0.340364187955856,0
158370,-0.340157032012939,0
158480,-0.34077849984169,0
158590,-0.340157032012939,0
158700,-0.341192841529846,0
158810,-0.339742720127106,0
158910,-0.341399997472763,0
159020,-0.341399997472763,0
159130,-0.340985685586929,0
159240,-0.340571343898773,0
159350,-0.340157032012939,0
159460,-0.340985685586929,0
159570,-0.340364187955856,0
159680,-0.339949876070023,0
159790,-0.340157032012939,0
159900,-0.34077849984169,0
160010,-0.339949876070023,0
160120,-0.341399997472763,0
160220,-0.341192841529846,0
160330,-0.34077849984169,0
160440,-0.340364187955856,4.68435297079557
160550,-0.34077849984169,6.24690916774565
160660,-0.341814309358597,72.5443079760779
160770,-0.342021465301514,75.5855897876243
160880,-0.341192841529846,76.0738622570088
160990,-0.340571343898773,75.7808987753781
161100,-0.340985685586929,75.878553269255
161210,-0.340985685586929,75.7808847263932
161320,-0.340571343898773,76.0738622570088
161430,-0.341399997472763,76.3668257386394
161540,-0.341814309358597,75.5855757386394
161640,-0.34077849984169,75.3902667508856
161750,-0.340571343898773,75.4879212447625
161860,-0.340157032012939,67.0137043438299
161970,-0.34160715341568,66.7532918398338
162080,-0.339742720127106,55.1136512254453
162190,-0.34160715341568,54.971607628626
162300,-0.340364187955856,54.9005858302163
162410,-0.340571343898773,55.113661442939
162520,-0.341192841529846,54.6164986365776
162630,-0.34077849984169,54.8295742493003
162740,-0.34160715341568,54.332411442939
162850,-0.340985685586929,54.332411442939
162950,-0.341399997472763,54.332411442939
163060,-0.341192841529846,54.0483140318066
163170,-0.340571343898773,54.1903678461196
163280,-0.340364187955856,54.5454870556616
163390,-0.340157032012939,54.7585524508906
163500,-0.340985685586929,54.7585524508906
163610,-0.34077849984169,54.829584466794
163720,-0.340157032012939,55.042649862023
163830,-0.341192841529846,55.042649862023
163940,-0.34243580698967,61.4787338156366
164050,-0.34077849984169,61.1782596967853
164160,-0.342021465301514,60.5773028135893
164270,-0.340571343898773,60.6975011066231
164370,-0.34077849984169,60.7576045758867
164480,-0.340985685586929,60.8777942234272
164590,-0.340364187955856,60.8777942234272
164700,-0.34077849984169,60.6374149283462
164810,-0.340571343898773,60.3970356332651
164920,-0.340985685586929,60.216742516461
165030,-0.341814309358597,59.9162597521164
165140,-0.341192841529846,59.8561649283462
165250,-0.340364187955856,60.0364580451502
165360,-0.340985685586929,59.7960701045759
165470,-0.341814309358597,59.435492516461
165580,-0.341399997472763,59.1350097521164
165680,-0.34077849984169,58.8946304570354
165790,-0.341192841529846,58.8345356332651
165900,-0.34077849984169,58.7143459857246
166010,-0.341399997472763,58.7744408094948
166120,-0.340571343898773,58.7143459857246
166230,-0.340985685586929,58.8345356332651
166340,-0.340571343898773,58.8946304570354
166450,-0.340985685586929,58.7744321640015
166560,-0.34077849984169,58.7143373402313
166670,-0.340571343898773,58.8946304570354
166780,-0.340571343898773,58.8946304570354
166890,-0.341192841529846,58.5941476926908
167000,-0.339742720127106,58.9547252808056
167100,-0.340985685586929,58.8946218115421
167210,-0.34077849984169,58.9547252808056
167320,-0.34077849984169,59.1350183976097
167430,-0.340571343898773,58.9547339262989
167540,-0.341192841529846,58.6542511619543
167650,-0.340157032012939,58.6542511619543
167760,-0.34077849984169,58.7744494549881
167870,-0.34077849984169,58.8345529242516
167980,-0.341399997472763,58.8946477480219
168090,-0.342021465301514,58.5941736291706
168200,-0.34077849984169,58.47398398163
168310,-0.34077849984169,58.5340874508936
168410,-0.340364187955856,58.9547598627787
168520,-0.340571343898773,58.7744753914679
168630,-0.339949876070023,58.8345702152382
168740,-0.34077849984169,59.2552426271233
168850,-0.341192841529846,59.3754322746639
168960,-0.341399997472763,59.1350443340895
169070,-0.34160715341568,58.9547598627787
169180,-0.340571343898773,58.9547598627787
169290,-0.341192841529846,58.8946650390085
169400,-0.341192841529846,59.3754322746639
169510,-0.34077849984169,59.2552426271233
169620,-0.341192841529846,58.8345702152382
169730,-0.341814309358597,58.4739926271233
169830,-0.340571343898773,58.6542857439274
169940,-0.340571343898773,58.8946736845017
170050,-0.340364187955856,58.8946736845017
170160,-0.34160715341568,58.6542857439274
170270,-0.339949876070023,58.6542857439274
170380,-0.34160715341568,58.2336133320423
170490,-0.34077849984169,58.3538116250761
170600,-0.340571343898773,58.5941995656504
170710,-0.340985685586929,58.2937168013058
170820,-0.340364187955856,58.2937168013058
170930,-0.34077849984169,58.2937168013058
171040,-0.339949876070023,58.5340960963869
171140,-0.340157032012939,58.7143805676977
171250,-0.341192841529846,58.7143805676977
171360,-0.34160715341568,58.7744753914679
171470,-0.340571343898773,58.7744753914679
171580,-0.340364187955856,58.6542857439274
171690,-0.340157032012939,58.7744753914679
171800,-0.339742720127106,58.9547598627787
171910,-0.340571343898773,59.014854686549
172020,-0.34077849984169,59.3153374508936
172130,-0.340571343898773,59.3754322746639
172240,-0.34160715341568,59.014854686549
172350,-0.34077849984169,58.8345702152382
172460,-0.339742720127106,59.1350443340895
172560,-0.340571343898773,59.014854686549
172670,-0.340985685586929,59.0749495103193
172780,-0.340364187955856,58.8946650390085
172890,-0.341192841529846,58.9547598627787
173000,-0.340364187955856,59.2552426271233
173110,-0.341814309358597,59.0148633320423
173220,-0.34160715341568,58.7143805676977
173330,-0.339949876070023,58.7744753914679
173440,-0.341192841529846,58.7143805676977
173550,-0.340985685586929,58.5340874508936
173660,-0.34160715341568,58.0533202152382
173770,-0.340364187955856,57.9932253914679
173880,-0.341399997472763,57.8129322746639
173980,-0.341192841529846,57.452354686549
174090,-0.340364187955856,57.7528374508936
174200,-0.341814309358597,57.5725529795828
174310,-0.340157032012939,57.7528374508936
174420,-0.340571343898773,57.6927426271233
174530,-0.34077849984169,57.6927426271233
174640,-0.34077849984169,57.9932253914679
174750,-0.34077849984169,58.3538029795828
174860,-0.34077849984169,58.4740012726166
174970,-0.34160715341568,58.173518508272
175080,-0.340985685586929,58.173518508272
175190,-0.34077849984169,58.2336219775356
175290,-0.34077849984169,58.1735271537653
175400,-0.339535564184189,58.7143892131909
175510,-0.341192841529846,58.8946736845017
175620,-0.341399997472763,58.7143805676977
175730,-0.340985685586929,58.5941822746639
175840,-0.340571343898773,58.4739926271233
175950,-0.340571343898773,58.7744753914679
176060,-0.341192841529846,58.3538029795828
176170,-0.340985685586929,58.5340874508936
176280,-0.340985685586929,58.3537943340895
176390,-0.341399997472763,58.1134063935152
176500,-0.34077849984169,58.233604686549
176610,-0.340985685586929,58.1735012172854
176710,-0.34077849984169,58.4138891578598
176820,-0.341192841529846,58.3537943340895
176930,-0.341814309358597,58.233604686549
177040,-0.340985685586929,58.2936995103193
177150,-0.340364187955856,58.3537943340895
177260,-0.340157032012939,58.4138891578598
177370,-0.340571343898773,58.2936995103193
177480,-0.340985685586929,58.2936995103193
177590,-0.340985685586929,58.2335960410557
177700,-0.340985685586929,57.9932081004814
177810,-0.340364187955856,58.2335960410557
177920,-0.340364187955856,58.8345615697449
178020,-0.341192841529846,58.7143632767111
178130,-0.342021465301514,58.7143632767111
178240,-0.340985685586929,58.5941649836773
178350,-0.340571343898773,58.6542598074476
178460,-0.34077849984169,58.7143632767111
178570,-0.33932837843895,59.0148460410557
178680,-0.34077849984169,59.0148460410557
178790,-0.340571343898773,59.0148460410557
178900,-0.342021465301514,58.7143719222044
179010,-0.341192841529846,58.8946563935152
179120,-0.341192841529846,58.8946563935152
179230,-0.340364187955856,58.8946563935152
179340,-0.341192841529846,58.8345615697449
179440,-0.34077849984169,59.1350443340895
179550,-0.340571343898773,59.3754322746639
179660,-0.34077849984169,59.3754322746639
179770,-0.341192841529846,59.3754322746639
179880,-0.340571343898773,59.4355270984341
179990,-0.341192841529846,59.4956219222044
180100,-0.34077849984169,59.4355270984341
180210,-0.340571343898773,59.5557253914679
180320,-0.339949876070023,59.7360098627787
180430,-0.340364187955856,59.9163029795828
180540,-0.341192841529846,59.796104686549
180650,-0.34077849984169,59.7360098627787
180750,-0.340571343898773,59.7360098627787
180860,-0.341192841529846,59.7360098627787
180970,-0.339949876070023,59.6759150390085
181080,-0.34077849984169,59.736018508272
181190,-0.341192841529846,59.6158202152382
181300,-0.34077849984169,59.6158202152382
181410,-0.342228621244431,59.1350529795828
181520,-0.341192841529846,59.1350529795828
181630,-0.341192841529846,58.8345702152382
181740,-0.341399997472763,58.6542770984341
181850,-0.339949876070023,58.8946563935152
181960,-0.341192841529846,58.9547512172854
182070,-0.34243580698967,58.8345529242516
182170,-0.340985685586929,58.7744494549881
182280,-0.340364187955856,58.8946391025286
182390,-0.340157032012939,58.9547339262989
182500,-0.34077849984169,58.8946391025286
182610,-0.34077849984169,58.6542598074476
182720,-0.340571343898773,58.7143546312178
182830,-0.341399997472763,58.6542598074476
182940,-0.341192841529846,58.7143546312178
183050,-0.340571343898773,59.0148373955624
183160,-0.340571343898773,59.0148373955624
183270,-0.339949876070023,59.3754149836773
183380,-0.341192841529846,59.3754149836773
183480,-0.340985685586929,59.3153115144138
183590,-0.340985685586929,59.375406338184
183700,-0.340985685586929,59.6157856332651
183810,-0.341399997472763,59.3753976926908
183920,-0.340364187955856,59.435492516461
184030,-0.340157032012939,59.4955873402313
184140,-0.340571343898773,59.7960701045759
184250,-0.339742720127106,59.8561649283462
184360,-0.341399997472763,59.9162597521164
184470,-0.339535564184189,60.276828694738
184580,-0.341399997472763,60.0364407541637
184690,-0.340571343898773,60.1566390471975
184800,-0.340157032012939,60.2167338709677
184900,-0.341192841529846,60.0965355779339
185010,-0.341192841529846,59.7359579898191
185120,-0.340571343898773,59.6157683422785
185230,-0.342228621244431,59.3152942234272
185340,-0.340985685586929,59.495578694738
185450,-0.340364187955856,59.5556735185083
185560,-0.340364187955856,59.5556735185083
185670,-0.339742720127106,59.6758631660488
185780,-0.341814309358597,59.0749062828529
185890,-0.340985685586929,58.9547079898191
186000,-0.340985685586929,58.8946045205555
186110,-0.340364187955856,58.9546993443258
186210,-0.340571343898773,59.2551821086704
186320,-0.341192841529846,59.1349838156366
186430,-0.341814309358597,58.5340269324407
186540,-0.340571343898773,58.5340269324407
186650,-0.340985685586929,58.5340269324407
186760,-0.340985685586929,58.3537338156366
186870,-0.34160715341568,58.2335441680961
186980,-0.340571343898773,58.1734493443258
187090,-0.340571343898773,58.5340269324407
187200,-0.340364187955856,58.8946045205555
187310,-0.339742720127106,58.9546993443258
187420,-0.341814309358597,58.774414873015
187530,-0.340985685586929,58.774414873015
187630,-0.34077849984169,59.0148028135893
187740,-0.34160715341568,58.6542252254745
187850,-0.339535564184189,59.1950872849001
187960,-0.340571343898773,59.3753804017042
188070,-0.340157032012939,59.4354752254745
188180,-0.340985685586929,59.6758545205555
188290,-0.341192841529846,59.3753717562109
188400,-0.340157032012939,59.4955614037515
188510,-0.339949876070023,59.7359406988325
188620,-0.34077849984169,59.7359406988325
188730,-0.339742720127106,60.0364148176838
188840,-0.341399997472763,59.8561217008798
188940,-0.340985685586929,60.0364061721906
189050,-0.341192841529846,59.9763113484203
189160,-0.340364187955856,60.0965009959608
189270,-0.339949876070023,60.3368802910419
189380,-0.341192841529846,59.8561130553865
189490,-0.341192841529846,59.8561130553865
189600,-0.340571343898773,60.0965009959608
189710,-0.34160715341568,59.91621652465
189820,-0.340571343898773,59.91621652465
189930,-0.341399997472763,59.6758285840757
190040,-0.340985685586929,59.735923407846
190150,-0.34077849984169,59.7960268771095
190260,-0.340985685586929,59.7960268771095
190360,-0.341192841529846,59.8561217008798
190470,-0.340157032012939,60.0364061721906
190580,-0.340985685586929,60.0364061721906
190690,-0.341399997472763,59.8561130553865
190800,-0.34077849984169,59.9763113484203
190910,-0.340364187955856,60.3969837603054
191020,-0.34077849984169,60.457087229569
191130,-0.34077849984169,60.3368975820284
191240,-0.34160715341568,59.9162251701433
191350,-0.340985685586929,59.7960268771095
191460,-0.34160715341568,59.6157424057987
191570,-0.341814309358597,59.3753631107177
191670,-0.34077849984169,59.4354665799812
191780,-0.341192841529846,59.1950786394069
191890,-0.34077849984169,59.0748889918663
192000,-0.34160715341568,58.9546993443258
192110,-0.341814309358597,59.0147941680961
192220,-0.340571343898773,59.1349924611299
192330,-0.340985685586929,59.0147941680961
192440,-0.34077849984169,59.0147941680961
192550,-0.34077849984169,58.5941217562109
192660,-0.340157032012939,58.7744062275217
192770,-0.340985685586929,58.6542079344879
192880,-0.342021465301514,58.6542079344879
192990,-0.342021465301514,58.4138286394069
193090,-0.341192841529846,58.4138286394069
193200,-0.339535564184189,58.6542079344879
193310,-0.342021465301514,58.4138286394069
193420,-0.340364187955856,58.5340182869474
193530,-0.341192841529846,58.3537251701433
193640,-0.341192841529846,58.2335268771095
193750,-0.341192841529846,58.2335268771095
193860,-0.340571343898773,58.2335268771095
193970,-0.341814309358597,58.0532424057987
194080,-0.34077849984169,58.0532424057987
194190,-0.34077849984169,57.9931475820284
194300,-0.34077849984169,57.7527682869474
194400,-0.34160715341568,57.3921906988325
194510,-0.34160715341568,57.272001051292
194620,-0.34160715341568,57.0316131107177
194730,-0.340157032012939,57.1518027582582
194840,-0.340985685586929,57.2118975820284
194950,-0.34160715341568,56.731130346373
195060,-0.341192841529846,56.6109320533392
195170,-0.34077849984169,56.731130346373
195280,-0.34077849984169,56.731130346373
195390,-0.34077849984169,57.1518027582582
195500,-0.340571343898773,57.3320958750623
195610,-0.34160715341568,57.2119062275217
195720,-0.34077849984169,57.3921993443258
195820,-0.340157032012939,57.3321045205555
195930,-0.340985685586929,57.3921993443258
196040,-0.340364187955856,57.993164873015
196150,-0.340985685586929,57.993164873015
196260,-0.34077849984169,57.8729752254745
196370,-0.340364187955856,57.8128804017042
196480,-0.34160715341568,57.5724924611299
196590,-0.340364187955856,57.6926821086704
196700,-0.340157032012939,57.8128717562109
196810,-0.340571343898773,58.0532596967853
196920,-0.340985685586929,58.1133545205555
197030,-0.341192841529846,57.9330614037515
197130,-0.340157032012939,58.053251051292
197240,-0.340985685586929,57.7527682869474
197350,-0.340985685586929,57.8128631107177
197460,-0.340364187955856,57.9931562275217
197570,-0.340985685586929,57.9931562275217
197680,-0.34160715341568,57.8128717562109
197790,-0.340364187955856,58.1133545205555
197900,-0.340571343898773,58.0532596967853
198010,-0.340571343898773,57.9330700492447
198120,-0.341814309358597,57.5724924611299
198230,-0.339949876070023,57.5123976373596
198340,-0.34160715341568,57.4523028135893
198450,-0.34077849984169,57.0917338709677
198550,-0.341399997472763,57.0917338709677
198660,-0.340364187955856,57.151828694738
198770,-0.340985685586929,56.9114407541637
198880,-0.342228621244431,56.6109666353123
198990,-0.340157032012939,56.9114493996569
199100,-0.341192841529846,56.7311562828529
199210,-0.341399997472763,56.9715355779339
199320,-0.342021465301514,56.6710614590826
199430,-0.341192841529846,56.4306735185083
199540,-0.341399997472763,56.1301907541637
199650,-0.341814309358597,55.5292338709677
199760,-0.339742720127106,56.1301907541637
199860,-0.339535564184189,56.5508631660488
199970,-0.341192841529846,56.4907683422785
200080,-0.341399997472763,56.1902855779339
200190,-0.341814309358597,55.8297079898191
200300,-0.34077849984169,55.9499062828529
200410,-0.340364187955856,56.370578694738
200520,-0.339535564184189,56.6710528135893
200630,-0.34160715341568,56.4907683422785
200740,-0.340985685586929,56.4907683422785
200850,-0.340364187955856,56.8513459303934
200960,-0.341399997472763,56.6109579898191
201070,-0.341814309358597,56.2503804017042
201180,-0.340571343898773,56.1902855779339
201280,-0.340985685586929,55.8297079898191
201390,-0.340157032012939,56.3104752254745
201500,-0.339949876070023,56.6109579898191
201610,-0.34160715341568,56.3705700492447
201720,-0.34243580698967,56.1301821086704
201830,-0.341399997472763,55.5893200492447
201940,-0.340571343898773,55.5893200492447
202050,-0.341192841529846,55.2888372849001
202160,-0.341192841529846,55.2287424611299
202270,-0.341192841529846,55.2287424611299
202380,-0.341192841529846,54.9282596967853
202490,-0.340364187955856,54.8080700492447
202590,-0.340985685586929,54.7479665799812
202700,-0.34160715341568,54.2071045205555
202810,-0.340985685586929,54.3272941680961
202920,-0.34077849984169,54.3873976373596
203030,-0.341399997472763,54.3273028135893
203140,-0.34077849984169,54.2071131660488
203250,-0.34077849984169,53.9667338709677
203360,-0.341192841529846,53.9667338709677
203470,-0.340364187955856,54.2071218115421
203580,-0.340571343898773,54.2071218115421
203690,-0.340364187955856,54.5676993996569
203800,-0.340157032012939,54.6878890471975
203910,-0.34160715341568,54.6277942234272
204010,-0.34077849984169,54.6878976926908
204120,-0.340985685586929,54.6277942234272
204230,-0.341814309358597,54.3874149283462
204340,-0.341399997472763,54.3273201045759
204450,-0.340985685586929,54.0869321640015
204560,-0.340985685586929,54.0869321640015
204670,-0.339949876070023,54.5076045758867
204780,-0.340985685586929,54.4475011066231
204890,-0.341814309358597,54.026828694738
205000,-0.339949876070023,54.2672079898191
205110,-0.34160715341568,54.0268200492447
205220,-0.340985685586929,54.2071045205555
205320,-0.341399997472763,54.086914873015
205430,-0.341192841529846,54.2071045205555
205540,-0.340985685586929,54.4474838156366
205650,-0.341399997472763,54.2671906988325
205760,-0.34077849984169,54.3873889918663
205870,-0.339949876070023,54.6277682869474
205980,-0.34160715341568,54.6277682869474
206090,-0.341192841529846,54.8080527582582
206200,-0.34160715341568,54.5075699939136
206310,-0.34160715341568,54.3272855226028
206420,-0.340985685586929,54.2671820533392
206530,-0.341399997472763,54.0868889365352
206640,-0.34077849984169,53.9066044652244
206740,-0.340364187955856,54.0868975820284
206850,-0.340364187955856,54.5676648176838
206960,-0.342021465301514,54.5676648176838
207070,-0.34077849984169,54.6878631107177
207180,-0.341399997472763,54.147001051292
207290,-0.340985685586929,54.4474751701433
207400,-0.339949876070023,54.5676648176838
207510,-0.340985685586929,54.6277596414541
207620,-0.340571343898773,54.8080527582582
207730,-0.340364187955856,55.0484406988325
207840,-0.341192841529846,54.8681475820284
207950,-0.341399997472763,54.988337229569
208050,-0.340364187955856,55.1085268771095
208160,-0.341192841529846,54.9883285840757
208270,-0.339535564184189,55.3488975266973
208380,-0.341814309358597,55.288802702927
208490,-0.340985685586929,55.4690871742378
208600,-0.340364187955856,55.8296647623527
208710,-0.340157032012939,55.8296647623527
208820,-0.34077849984169,55.8897682316162
208930,-0.341399997472763,55.9498630553865
209040,-0.340157032012939,56.2503458197311
209150,-0.34160715341568,56.0099578791568
209260,-0.34077849984169,56.0099578791568
209370,-0.341192841529846,55.8897595861229
209470,-0.340157032012939,56.0099492336635
209580,-0.34077849984169,56.2503371742378
209690,-0.339949876070023,56.4907164693189
209800,-0.342021465301514,55.9498544098932
209910,-0.340571343898773,56.070052702927
210020,-0.341192841529846,55.8296647623527
210130,-0.340571343898773,55.9498630553865
210240,-0.340571343898773,56.0099578791568
210350,-0.34160715341568,55.6493802910419
210460,-0.340985685586929,55.8296647623527
210570,-0.341399997472763,55.5291819980081
210680,-0.34160715341568,55.1085095861229
210780,-0.339949876070023,55.2887940574337
210890,-0.340571343898773,55.4089923504675
211000,-0.341814309358597,55.2287078791568
211110,-0.340985685586929,54.9883199385824
211220,-0.341814309358597,54.7479406435014
211330,-0.34160715341568,54.5676561721906
211440,-0.341192841529846,54.3272682316162
211550,-0.340571343898773,54.44746652465
211660,-0.339742720127106,54.9883285840757
211770,-0.341399997472763,54.6878458197311
211880,-0.340985685586929,54.5676475266973
211990,-0.341399997472763,54.3272595861229
212100,-0.341399997472763,54.4474492336635
212200,-0.34077849984169,54.2070699385824
212310,-0.34077849984169,54.4474578791568
212420,-0.340364187955856,54.5676475266973
212530,-0.340364187955856,54.8681302910419
212640,-0.340571343898773,54.8080354672716
212750,-0.340985685586929,54.8080354672716
212860,-0.34077849984169,55.2287078791568
212970,-0.341399997472763,54.8681302910419
213080,-0.341192841529846,54.8681302910419
213190,-0.34160715341568,54.8080354672716
213300,-0.340985685586929,55.1085095861229
213410,-0.341192841529846,55.1085095861229
213510,-0.34077849984169,55.288802702927
213620,-0.34077849984169,55.5892854672716
213730,-0.340157032012939,55.4690958197311
213840,-0.341192841529846,54.9883285840757
213950,-0.341399997472763,54.9282337603054
214060,-0.340364187955856,55.22871652465
214170,-0.340571343898773,55.5892941127649
214280,-0.340985685586929,55.5291906435014
214390,-0.34077849984169,55.4090009959608
214500,-0.341192841529846,54.9282337603054
214610,-0.341192841529846,55.048423407846
214720,-0.340985685586929,55.048423407846
214830,-0.341192841529846,54.8080354672716
214930,-0.341192841529846,54.8681302910419
215040,-0.340571343898773,55.2287078791568
215150,-0.340157032012939,55.3488975266973
215260,-0.34160715341568,55.1686130553865
215370,-0.340364187955856,55.1085182316162
215480,-0.34077849984169,54.8681389365352
215590,-0.341399997472763,54.9282337603054
215700,-0.340571343898773,55.4691044652244
215810,-0.341192841529846,55.5291992889946
215920,-0.340157032012939,55.6493889365352
216030,-0.341814309358597,55.4691044652244
216140,-0.341399997472763,55.4090096414541
216240,-0.340985685586929,55.4691044652244
216350,-0.341192841529846,55.4691044652244
216460,-0.342228621244431,54.9282424057987
216570,-0.340157032012939,55.168630346373
216680,-0.340364187955856,55.5292079344879
216790,-0.340985685586929,55.5292079344879
216900,-0.339535564184189,55.8897768771095
217010,-0.34077849984169,56.0700699939136
217120,-0.341399997472763,55.8897768771095
217230,-0.339949876070023,56.1301561721906
217340,-0.340571343898773,56.3104492889946
217450,-0.34077849984169,56.1902596414541
217560,-0.341399997472763,55.9498717008798
217660,-0.341192841529846,55.7094837603054
217770,-0.341192841529846,55.4090009959608
217880,-0.341192841529846,55.5291906435014
217990,-0.33932837843895,55.9498630553865
218100,-0.340985685586929,55.9498630553865
218210,-0.34077849984169,56.2503458197311
218320,-0.34160715341568,56.1902509959608
218430,-0.341814309358597,55.9498717008798
218540,-0.340985685586929,55.9498717008798
218650,-0.339742720127106,56.00996652465
218760,-0.340157032012939,56.2503544652244
218870,-0.34077849984169,56.550837229569
218970,-0.340985685586929,56.2503544652244
219080,-0.341814309358597,56.1902596414541
219190,-0.34160715341568,56.0099751701433
219300,-0.34160715341568,55.949880346373
219410,-0.34160715341568,55.8296906988325
219520,-0.34077849984169,55.8897941680961
219630,-0.342021465301514,55.7095096967853
219740,-0.341192841529846,55.5893114037515
219850,-0.340985685586929,55.2888286394069
219960,-0.340571343898773,55.5893114037515
220070,-0.339949876070023,55.9498889918663
220180,-0.340364187955856,56.3104665799812
220290,-0.34077849984169,56.5508545205555
220390,-0.34077849984169,56.6109579898191
220500,-0.34077849984169,56.7912511066231
220610,-0.340157032012939,56.9715355779339
220720,-0.340157032012939,57.0316304017042
220830,-0.339949876070023,57.1518200492447
220940,-0.340985685586929,57.4522941680961
221050,-0.34077849984169,57.4522941680961
221160,-0.341814309358597,57.3321045205555
221270,-0.341814309358597,57.0917252254745
221380,-0.340985685586929,56.7912424611299
221490,-0.341399997472763,56.6710528135893
221600,-0.340985685586929,56.5508545205555
221700,-0.341399997472763,56.2503717562109
221810,-0.341399997472763,56.1902769324407
221920,-0.34077849984169,56.3705700492447
222030,-0.340364187955856,56.3705700492447
222140,-0.341192841529846,56.3705700492447
222250,-0.340364187955856,56.1301907541637
222360,-0.341399997472763,56.2503804017042
222470,-0.340364187955856,56.4306735185083
222580,-0.339535564184189,56.6710528135893
222690,-0.340571343898773,56.5508631660488
222800,-0.340985685586929,56.4907596967853
222910,-0.340571343898773,56.7311476373596
223020,-0.341399997472763,56.3705700492447
223120,-0.340571343898773,56.6710528135893
223230,-0.340364187955856,56.7912424611299
223340,-0.341399997472763,56.7311476373596
223450,-0.340571343898773,56.6109579898191
223560,-0.341192841529846,56.4907596967853
223670,-0.341814309358597,55.9498976373596
223780,-0.339742720127106,56.6109493443258
223890,-0.340985685586929,56.490751051292
224000,-0.34243580698967,56.1301734631771
224110,-0.34160715341568,55.8296906988325
224220,-0.341192841529846,55.6493975820284
224330,-0.340571343898773,55.949880346373
224430,-0.34160715341568,55.7695958750623
224540,-0.340364187955856,56.0700786394069
224650,-0.340571343898773,56.3705614037515
224760,-0.340985685586929,56.0700786394069
224870,-0.34077849984169,56.0099838156366
224980,-0.341192841529846,56.1902682869474
225090,-0.340571343898773,56.3104665799812
225200,-0.340985685586929,56.5508458750623
225310,-0.340571343898773,56.8513286394069
225420,-0.339742720127106,57.272001051292
225530,-0.34160715341568,56.9715182869474
225640,-0.341192841529846,56.5508458750623
225750,-0.340571343898773,56.7912338156366
225850,-0.340157032012939,57.0316217562109
225960,-0.342642962932587,56.6710441680961
226070,-0.340985685586929,56.7912338156366
226180,-0.341814309358597,56.490751051292
226290,-0.341399997472763,56.3104579344879
226400,-0.341192841529846,56.0700699939136
226510,-0.34160715341568,55.7094924057987
226620,-0.340985685586929,55.5892941127649
226730,-0.34077849984169,55.6493975820284
226840,-0.340985685586929,55.5892941127649
226950,-0.341399997472763,55.5892941127649
227060,-0.34160715341568,55.4691044652244
227160,-0.340157032012939,55.8897768771095
227270,-0.341399997472763,55.769587229569
227380,-0.340985685586929,55.8296820533392
227490,-0.34160715341568,55.5892941127649
227600,-0.33932837843895,56.00996652465
227710,-0.339535564184189,56.1902509959608
227820,-0.339949876070023,56.5508285840757
227930,-0.340571343898773,56.79121652465
228040,-0.34077849984169,56.6710268771095
228150,-0.341399997472763,56.4306389365352
228260,-0.341399997472763,56.3104492889946
228370,-0.34160715341568,56.0700613484203
228480,-0.340985685586929,56.1301561721906
228580,-0.341399997472763,56.0700613484203
228690,-0.34243580698967,55.6493889365352
228800,-0.340571343898773,55.8296820533392
228910,-0.34160715341568,55.7094924057987
229020,-0.34160715341568,55.4090096414541
229130,-0.341192841529846,55.1085268771095
229240,-0.34243580698967,54.8681389365352
229350,-0.339535564184189,55.1085182316162
229460,-0.340157032012939,55.288802702927
229570,-0.341192841529846,55.3488975266973
229680,-0.34077849984169,55.288802702927
229790,-0.341814309358597,55.1085182316162
229890,-0.341192841529846,54.8080354672716
230000,-0.341192841529846,54.9883199385824
230110,-0.341192841529846,55.0484147623527
230220,-0.341192841529846,54.9883199385824
230330,-0.340571343898773,55.1686130553865
230440,-0.34160715341568,55.3488975266973
230550,-0.341192841529846,55.0484147623527
230660,-0.341192841529846,54.8080268217783
230770,-0.341192841529846,54.7479319980081
230880,-0.34243580698967,53.9065871742378
230990,-0.341399997472763,53.7262940574337
231100,-0.341192841529846,53.786388881204
231210,-0.340985685586929,53.4859061168594
231310,-0.341192841529846,53.3056130000553
231420,-0.341192841529846,53.1854147070215
231530,-0.341814309358597,53.065225059481
231640,-0.340571343898773,53.2455181762851
231750,-0.341399997472763,53.1854233525148
231860,-0.341399997472763,53.1253285287445
231970,-0.34077849984169,52.7046561168594
232080,-0.340571343898773,52.8248544098932
232190,-0.341192841529846,52.7046561168594
232300,-0.340571343898773,53.005138881204
232410,-0.340571343898773,53.3657164693189
232520,-0.339742720127106,53.7262940574337
232620,-0.34077849984169,53.4258199385824
232730,-0.341399997472763,53.0652423504675
232840,-0.341399997472763,52.8849492336635
232950,-0.34077849984169,52.945052702927
233060,-0.340571343898773,53.3056302910419
233170,-0.34160715341568,53.3056302910419
233280,-0.341399997472763,53.3657251148121
233390,-0.339535564184189,53.9666819980081
233500,-0.341192841529846,53.8464837049743
233610,-0.340985685586929,54.1469578238256
233720,-0.341814309358597,53.9666733525148
233830,-0.34077849984169,54.0267768217783
233940,-0.341192841529846,53.8464837049743
234040,-0.341399997472763,53.4258112930891
234150,-0.341399997472763,53.1253285287445
234260,-0.340571343898773,53.1854233525148
234370,-0.341192841529846,53.065225059481
234480,-0.340157032012939,53.2455095307918
234590,-0.340571343898773,53.1253198832513
234700,-0.34160715341568,52.7046474713661
234810,-0.34160715341568,52.2238802357107
234920,-0.340571343898773,52.3440785287445
235030,-0.340157032012939,52.5243630000553
235140,-0.340571343898773,52.8849405881702
235250,-0.341192841529846,53.065225059481
235350,-0.340571343898773,53.1854233525148
235460,-0.340157032012939,53.5460009406297
235570,-0.340157032012939,53.786388881204
235680,-0.341192841529846,53.8464837049743
235790,-0.34160715341568,53.786388881204
235900,-0.342021465301514,53.4258112930891
236010,-0.341814309358597,53.005138881204
236120,-0.340571343898773,53.1854319980081
236230,-0.341399997472763,52.8849492336635
236340,-0.340571343898773,53.1253371742378
236450,-0.341192841529846,52.8849492336635
236560,-0.341399997472763,52.3440871742378
236670,-0.341192841529846,52.1637940574337
236770,-0.340364187955856,52.3440871742378
236880,-0.342021465301514,51.9234147623527
236990,-0.339742720127106,52.4041819980081
237100,-0.341399997472763,52.1637940574337
237210,-0.34077849984169,52.0436044098932
237320,-0.342021465301514,51.8633199385824
237430,-0.34077849984169,51.8032251148121
237540,-0.340985685586929,51.8633199385824
237650,-0.34077849984169,52.163802702927
237760,-0.340985685586929,51.8032251148121
237870,-0.340985685586929,51.8032251148121
237980,-0.340985685586929,52.2238975266973
238080,-0.339742720127106,52.7647595861229
238190,-0.341399997472763,52.7046647623527
238300,-0.340985685586929,52.5844664693189
238410,-0.340985685586929,52.7647509406297
238520,-0.340985685586929,52.5844578238256
238630,-0.34077849984169,52.5243630000553
238740,-0.340364187955856,52.7046561168594
238850,-0.34077849984169,52.7046561168594
238960,-0.340985685586929,52.7647509406297
239070,-0.341192841529846,52.5844578238256
239180,-0.34077849984169,52.6445612930891
239290,-0.340985685586929,52.5243630000553
239400,-0.340571343898773,52.2839837049743
239500,-0.340985685586929,52.4642681762851
239610,-0.34160715341568,52.3440785287445
239720,-0.34077849984169,52.2839837049743
239830,-0.340985685586929,52.0435957643999
239940,-0.340157032012939,52.7647509406297
240050,-0.34077849984169,52.8248544098932
240160,-0.340985685586929,53.0652337049743
240270,-0.340364187955856,53.3657164693189
240380,-0.339949876070023,53.7262940574337
240490,-0.341399997472763,53.786388881204
240600,-0.340364187955856,53.9666819980081
240710,-0.341192841529846,53.8464837049743
240810,-0.340571343898773,53.9666819980081
240920,-0.340157032012939,54.3272595861229
241030,-0.34160715341568,54.3272595861229
241140,-0.340985685586929,54.0868716455486
241250,-0.340985685586929,54.2070612930891
241360,-0.341814309358597,53.9666819980081
241470,-0.34160715341568,53.9666819980081
241580,-0.340364187955856,53.6661992336635
241690,-0.341399997472763,53.1253371742378
241800,-0.340571343898773,52.945052702927
241910,-0.34077849984169,52.8849578791568
242020,-0.340571343898773,52.945052702927
242130,-0.34077849984169,53.1253458197311
242230,-0.34160715341568,53.0652509959608
242340,-0.34077849984169,53.3056389365352
242450,-0.34077849984169,53.3657424057987
242560,-0.341192841529846,53.425837229569
242670,-0.34077849984169,53.9066131107177
242780,-0.340571343898773,53.9066131107177
242890,-0.341814309358597,53.8465182869474
243000,-0.34077849984169,54.0869062275217
243110,-0.341192841529846,54.0869062275217
243220,-0.341192841529846,54.4474838156366
243330,-0.339949876070023,54.3272941680961
243440,-0.340571343898773,54.2071045205555
243540,-0.34077849984169,54.3273028135893
243650,-0.34243580698967,53.8465269324407
243760,-0.341399997472763,53.9667165799812
243870,-0.341192841529846,53.9667165799812
243980,-0.340571343898773,54.1470096967853
244090,-0.340985685586929,54.2071045205555
244200,-0.340571343898773,54.3873976373596
244310,-0.34160715341568,54.086914873015
244420,-0.340571343898773,54.3873976373596
244530,-0.339949876070023,54.7479752254745
244640,-0.340571343898773,54.9282683422785
244750,-0.340985685586929,54.9883631660488
244860,-0.341399997472763,55.2888459303934
244960,-0.340571343898773,55.5292338709677
245070,-0.34077849984169,55.6494321640015
245180,-0.341399997472763,55.529242516461
245290,-0.340571343898773,55.7095356332651
245400,-0.341399997472763,55.6494408094948
245510,-0.341192841529846,55.8297252808056
245620,-0.340571343898773,55.8297252808056
245730,-0.340985685586929,55.9499149283462
245840,-0.340985685586929,56.0701045758867
245950,-0.341192841529846,55.9499062828529
246060,-0.340364187955856,56.0100011066231
246170,-0.34160715341568,55.8898114590826
246270,-0.339121222496033,56.3104838709677
246380,-0.340157032012939,56.4306735185083
246490,-0.34077849984169,56.1301993996569
246600,-0.341399997472763,55.9499062828529
246710,-0.340364187955856,56.2503890471975
246820,-0.341399997472763,56.2503890471975
246930,-0.340985685586929,56.1902855779339
247040,-0.340364187955856,56.2503804017042
247150,-0.34077849984169,56.4907683422785
247260,-0.340985685586929,56.6109579898191
247370,-0.340364187955856,56.370578694738
247480,-0.341192841529846,56.370578694738
247590,-0.340985685586929,56.370578694738
247690,-0.340157032012939,56.8513459303934
247800,-0.34077849984169,56.8513459303934
247910,-0.340364187955856,57.0917338709677
248020,-0.340571343898773,57.3321218115421
248130,-0.342021465301514,57.1518373402313
248240,-0.341814309358597,56.7912597521164
248350,-0.342021465301514,56.5508804570354
248460,-0.340571343898773,56.4306908094948
248570,-0.34077849984169,56.3705959857246
248680,-0.340157032012939,56.7912683976097
248790,-0.340157032012939,57.2119408094948
248900,-0.34077849984169,57.1518459857246
249000,-0.34077849984169,56.9715615144138
249110,-0.34077849984169,56.9114666906435
249220,-0.341399997472763,56.8513718668732
249330,-0.34077849984169,56.791277043103
249440,-0.34077849984169,56.6109925717922
249550,-0.339742720127106,56.7311822193327
249660,-0.341399997472763,56.6710873955624
249770,-0.33932837843895,57.3321477480219
249880,-0.339949876070023,57.9331046312178
249990,-0.341192841529846,58.1133891025286
250100,-0.340364187955856,58.1734839262989
250210,-0.340985685586929,58.2936735738394
250320,-0.34160715341568,57.9931908094948
250420,-0.340364187955856,58.2335787500692
250530,-0.340157032012939,58.594156338184
250640,-0.340985685586929,58.6542511619543
250750,-0.341814309358597,58.2335787500692
250860,-0.341192841529846,58.4739580451502
250970,-0.340571343898773,58.2335787500692
251080,-0.34160715341568,58.1734839262989
251190,-0.341192841529846,58.0532856332651
251300,-0.340364187955856,58.5340528689205
251410,-0.34243580698967,58.0532769877718
251520,-0.340985685586929,58.0532769877718
251630,-0.34160715341568,57.8128890471975
251730,-0.341814309358597,57.5725097521164
251840,-0.341399997472763,57.4523201045759
251950,-0.340157032012939,57.6927080451502
252060,-0.340364187955856,57.5124235738394
252170,-0.34077849984169,57.6927166906435
252280,-0.341192841529846,57.6326218668732
252390,-0.341399997472763,57.5124322193327
252500,-0.340364187955856,57.6927253361368
252610,-0.342642962932587,57.1518546312178
252720,-0.340571343898773,57.0917598074476
252830,-0.340364187955856,57.2119494549881
252940,-0.340985685586929,57.2119494549881
253050,-0.341814309358597,57.0316649836773
253150,-0.340985685586929,56.9715615144138
253260,-0.341814309358597,56.7311822193327
253370,-0.341192841529846,56.5508891025286
253480,-0.341192841529846,56.4907942787584
253590,-0.340157032012939,56.9114666906435
253700,-0.340571343898773,56.9715615144138
253810,-0.34160715341568,56.791277043103
253920,-0.342021465301514,56.2504149836773
254030,-0.341192841529846,56.1302166906435
254140,-0.340985685586929,56.1302166906435
254250,-0.34160715341568,55.7696391025286
254360,-0.34160715341568,55.2888718668732
254470,-0.341192841529846,55.3489666906435
254570,-0.340364187955856,55.3489666906435
254680,-0.339535564184189,55.8297339262989
254790,-0.341192841529846,55.6494408094948
254900,-0.342021465301514,55.1085787500692
255010,-0.34077849984169,55.3489666906435
255120,-0.340985685586929,55.3489666906435
255230,-0.340571343898773,55.4691649836773
255340,-0.340364187955856,55.8898373955624
255450,-0.341814309358597,55.8297425717922
255560,-0.34243580698967,55.228777043103
255670,-0.341814309358597,55.1085873955624
255780,-0.341192841529846,54.9282942787584
255880,-0.341399997472763,54.7480011619543
255990,-0.34077849984169,54.687906338184
256100,-0.34077849984169,54.687906338184
256210,-0.339949876070023,55.1686735738394
256320,-0.342021465301514,54.8080959857246
256430,-0.340985685586929,54.747992516461
256540,-0.34077849984169,54.8681908094948
256650,-0.34160715341568,54.6278028689205
256760,-0.34077849984169,54.5677080451502
256870,-0.340571343898773,54.9282856332651
256980,-0.340985685586929,54.8681821640015
257090,-0.339535564184189,55.3489493996569
257200,-0.34243580698967,54.9883718115421
257300,-0.34160715341568,54.5076045758867
257410,-0.341399997472763,54.2672166353123
257520,-0.34077849984169,54.2672166353123
257630,-0.341814309358597,54.4475097521164
257740,-0.33932837843895,55.0484752808056
257850,-0.341399997472763,54.9883804570354
257960,-0.340985685586929,54.8681821640015
258070,-0.341814309358597,54.6278028689205
258180,-0.341814309358597,54.2672252808056
258290,-0.341399997472763,54.3273201045759
258400,-0.339949876070023,54.5076045758867
258510,-0.34077849984169,54.2672252808056
258610,-0.340157032012939,54.3874149283462
258720,-0.340985685586929,54.3874149283462
258830,-0.340364187955856,54.6878976926908
258940,-0.341192841529846,54.5076045758867
259050,-0.341192841529846,54.3874062828529
259160,-0.34077849984169,54.5676993996569
259270,-0.340985685586929,54.4475011066231
259380,-0.340985685586929,54.5676907541637
259490,-0.341399997472763,54.5075959303934
259600,-0.34160715341568,54.2071131660488
259710,-0.341399997472763,54.0869235185083
259820,-0.341399997472763,53.9667338709677
259930,-0.340571343898773,54.1470269877718
260030,-0.340985685586929,53.9667338709677
260140,-0.341192841529846,54.0869235185083
260250,-0.341192841529846,53.4859579898191
260360,-0.341192841529846,53.1854752254745
260470,-0.341814309358597,52.8849924611299
260580,-0.34077849984169,53.0652855779339
260690,-0.339949876070023,53.1854752254745
260800,-0.340571343898773,53.4258631660488
260910,-0.341192841529846,53.3657683422785
261020,-0.340571343898773,53.3056735185083
261130,-0.340985685586929,53.2455700492447
261240,-0.340157032012939,53.4859579898191
261340,-0.34077849984169,53.3657683422785
261450,-0.341192841529846,53.3657683422785
261560,-0.34160715341568,53.1854838709677
261670,-0.339949876070023,53.245578694738
261780,-0.340364187955856,53.3657683422785
261890,-0.340364187955856,53.3657683422785
262000,-0.34077849984169,53.3056735185083
262110,-0.341399997472763,53.4859579898191
262220,-0.34077849984169,53.7864407541637
262330,-0.340985685586929,54.086914873015
262440,-0.340571343898773,54.086914873015
262550,-0.341192841529846,53.9667165799812
262660,-0.34077849984169,53.7864321086704
262760,-0.34160715341568,53.3657596967853
262870,-0.34160715341568,53.1253717562109
262980,-0.339949876070023,53.365751051292
263090,-0.340985685586929,53.3056475820284
263200,-0.340364187955856,53.606130346373
263310,-0.340157032012939,53.7864148176838
263420,-0.340571343898773,53.8465096414541
263530,-0.341399997472763,53.3657424057987
263640,-0.339949876070023,53.7864148176838
263750,-0.340571343898773,53.425837229569
263860,-0.34160715341568,52.9450699939136
263970,-0.340571343898773,53.1253631107177
264070,-0.341192841529846,52.8849751701433
264180,-0.341192841529846,52.824880346373
264290,-0.341192841529846,52.9450699939136
264400,-0.34160715341568,52.5844924057987
264510,-0.341399997472763,52.2239148176838
264630,-0.340985685586929,52.2239148176838
264730,-0.339121222496033,53.0051648176838
264840,-0.340985685586929,53.0652596414541
264950,-0.340985685586929,52.9450613484203
265060,-0.340985685586929,53.1253458197311
265170,-0.340985685586929,53.1854406435014
265280,-0.341192841529846,52.945052702927
265390,-0.341399997472763,53.2455354672716
265490,-0.340985685586929,53.2455354672716
265600,-0.340571343898773,53.5460182316162
265710,-0.340157032012939,54.0267854672716
265820,-0.34160715341568,53.9666906435014
265930,-0.340571343898773,53.8465009959608
266040,-0.34077849984169,53.7263113484203
266150,-0.340985685586929,53.6662078791568
266260,-0.34160715341568,53.5460182316162
266370,-0.340985685586929,53.6662078791568
266480,-0.340364187955856,53.6662078791568
266590,-0.340364187955856,54.3272682316162
266700,-0.341814309358597,53.9666906435014
266800,-0.342228621244431,53.4258285840757
266910,-0.341192841529846,53.3657337603054
267020,-0.341192841529846,53.5460182316162
267130,-0.340571343898773,53.66621652465
267240,-0.340985685586929,53.9065958197311
267350,-0.341192841529846,53.9065958197311
267460,-0.34160715341568,53.7864061721906
267570,-0.341192841529846,53.485923407846
267680,-0.341192841529846,53.3056302910419
267790,-0.340985685586929,53.4859147623527
267900,-0.34077849984169,53.8464923504675
268010,-0.340364187955856,54.0868802910419
268120,-0.341814309358597,53.8465009959608
268220,-0.340571343898773,54.1469837603054
268330,-0.34160715341568,54.1469837603054
268440,-0.340985685586929,54.2070785840757
268550,-0.340985685586929,54.0267854672716
268660,-0.341192841529846,53.5460182316162
268770,-0.341399997472763,53.485923407846
268880,-0.340985685586929,53.7863975266973
268990,-0.341814309358597,53.4859147623527
269100,-0.339949876070023,53.7863975266973
269210,-0.340985685586929,53.6661992336635
269320,-0.340571343898773,53.6061044098932
269430,-0.342021465301514,53.5460095861229
269530,-0.34077849984169,54.0267854672716
269640,-0.340157032012939,54.507552702927
269750,-0.34160715341568,54.3873630553865
269860,-0.341192841529846,54.4474578791568
269970,-0.340985685586929,54.3873544098932
270080,-0.341399997472763,54.2070612930891
270190,-0.34077849984169,53.9666819980081
270300,-0.340571343898773,54.3873544098932
270410,-0.339949876070023,54.6878371742378
270520,-0.339949876070023,54.9282164693189
270630,-0.341192841529846,55.0484061168594
270740,-0.341399997472763,54.8681130000553
270850,-0.340364187955856,54.9282078238256
270950,-0.340571343898773,55.0484061168594
271060,-0.340985685586929,54.6277337049743
271170,-0.340157032012939,55.2887940574337
271280,-0.34077849984169,55.5291819980081
271390,-0.34305727481842,55.0484147623527
271500,-0.341399997472763,54.8681216455486
271610,-0.341192841529846,55.0484061168594
271720,-0.341192841529846,54.5075354119405
271830,-0.341192841529846,54.5676302357107
271940,-0.341399997472763,54.4474405881702
272050,-0.341399997472763,54.5676302357107
272160,-0.34077849984169,54.8681130000553
272260,-0.340157032012939,55.2286905881702
272370,-0.34077849984169,54.9883112930891
272480,-0.341399997472763,54.8080181762851
272590,-0.341399997472763,54.4474405881702
272700,-0.341192841529846,54.3873457643999
272810,-0.340571343898773,54.3272509406297
272920,-0.340985685586929,54.3873457643999
273030,-0.341192841529846,54.3873457643999
273140,-0.339742720127106,54.6878198832513
273250,-0.341192841529846,54.627725059481
273360,-0.341399997472763,54.5075354119405
273470,-0.341192841529846,54.5676302357107
273580,-0.341192841529846,54.6878198832513
273680,-0.340985685586929,54.8080095307918
273790,-0.341399997472763,54.8080095307918
273900,-0.340364187955856,54.8681043545621
274010,-0.340364187955856,55.0483974713661
274120,-0.34077849984169,55.1685957643999
274230,-0.341192841529846,55.1685957643999
274340,-0.340985685586929,55.2286905881702
274450,-0.34160715341568,55.2887854119405
274560,-0.341192841529846,55.1685871189067
274670,-0.341192841529846,54.8080095307918
274780,-0.342021465301514,54.3873371189067
274890,-0.340364187955856,54.627725059481
274990,-0.341192841529846,54.4474319426769
275100,-0.341399997472763,54.3272422951364
275210,-0.341399997472763,53.9666647070215
275320,-0.341399997472763,53.7863715902174
275430,-0.34077849984169,53.9065698832513
275540,-0.34243580698967,53.6661819426769
275650,-0.341399997472763,53.2455095307918
275760,-0.342228621244431,52.7046474713661
275870,-0.341192841529846,52.4642595307918
275980,-0.34077849984169,52.4642595307918
276090,-0.341192841529846,52.5243543545621
276200,-0.341192841529846,52.4041560615282
276310,-0.339949876070023,52.7046388258728
276410,-0.340985685586929,52.584440532839
276520,-0.340571343898773,52.7647336496431
276630,-0.34160715341568,52.5243457090688
276740,-0.341399997472763,52.584440532839
276850,-0.34077849984169,52.8248284734134
276960,-0.34077849984169,52.5844491783323
277070,-0.341192841529846,52.5243543545621
277180,-0.340571343898773,52.4642595307918
277290,-0.340985685586929,52.2238715902174
277400,-0.340571343898773,52.2238715902174
277510,-0.342228621244431,51.9834922951364
277620,-0.341192841529846,51.6229147070215
277720,-0.341399997472763,51.3825267664472
277830,-0.340985685586929,51.562811237758
277940,-0.341192841529846,51.3825181209539
278050,-0.34077849984169,51.5027164139877
278160,-0.342642962932587,51.0820440021026
278270,-0.342642962932587,50.6613715902174
278380,-0.34160715341568,50.6613715902174
278490,-0.341192841529846,50.7214664139877
278600,-0.340157032012939,50.9618543545621
278710,-0.34077849984169,50.4810871189067
278820,-0.340985685586929,50.4810871189067
278930,-0.340364187955856,50.6613802357107
279040,-0.341814309358597,50.4210009406297
279140,-0.341192841529846,50.3609061168594
279250,-0.340157032012939,50.661388881204
279360,-0.340157032012939,51.0219664693189
279470,-0.340985685586929,51.0219664693189
279580,-0.34077849984169,50.9618716455486
279690,-0.342021465301514,50.4210095861229
279800,-0.341399997472763,50.4811044098932
279910,-0.34077849984169,50.4210095861229
280020,-0.34077849984169,50.4210095861229
280130,-0.341192841529846,50.3609147623527
280240,-0.341399997472763,50.4210095861229
280350,-0.340364187955856,50.601302702927
280450,-0.340985685586929,50.4210095861229
280560,-0.34243580698967,49.8200440574337
280670,-0.340157032012939,50.3008112930891
280780,-0.34160715341568,50.4810957643999
280890,-0.340157032012939,50.7815785287445
281000,-0.34077849984169,50.9017768217783
281110,-0.341399997472763,50.661388881204
281220,-0.340985685586929,50.661388881204
281330,-0.342021465301514,50.4210095861229
281440,-0.340571343898773,50.7214923504675
281550,-0.340985685586929,50.7815871742378
281660,-0.341192841529846,50.7815871742378
281770,-0.341399997472763,50.6613975266973
281870,-0.341814309358597,50.3609147623527
281980,-0.341192841529846,50.1205268217783
282090,-0.340571343898773,50.4811044098932
282200,-0.341399997472763,50.2407164693189
282310,-0.34077849984169,50.4811044098932
282420,-0.340985685586929,50.4811044098932
282530,-0.340985685586929,50.4811044098932
282640,-0.342021465301514,50.2407251148121
282750,-0.34160715341568,50.1806302910419
282860,-0.34077849984169,50.2407337603054
282970,-0.34160715341568,50.3008285840757
283080,-0.340157032012939,50.2407337603054
283180,-0.339742720127106,50.6013113484203
283290,-0.34160715341568,50.3008285840757
283400,-0.340571343898773,50.7215009959608
283510,-0.342021465301514,50.360923407846
283620,-0.34077849984169,50.1806389365352
283730,-0.341192841529846,50.3008285840757
283840,-0.340157032012939,50.6013113484203
283950,-0.34077849984169,50.6614148176838
284060,-0.34077849984169,50.8417079344879
284170,-0.340571343898773,50.9018027582582
284280,-0.340985685586929,50.7816044652244
284390,-0.340364187955856,50.6614148176838
284500,-0.341399997472763,50.2407424057987
284600,-0.341399997472763,50.1806475820284
284710,-0.34077849984169,50.3609406988325
284820,-0.340364187955856,50.3609406988325
284930,-0.340571343898773,50.3609406988325
285040,-0.34160715341568,50.1806562275217
285150,-0.340157032012939,50.1806562275217
285260,-0.34077849984169,50.1806562275217
285370,-0.34160715341568,50.6013286394069
285480,-0.34160715341568,50.5412338156366
285590,-0.340571343898773,50.7215269324407
285700,-0.340571343898773,50.9018200492447
285810,-0.341399997472763,50.8417252254745
285910,-0.34077849984169,51.0220183422785
286020,-0.341192841529846,51.0821131660488
286130,-0.340364187955856,51.2023028135893
286240,-0.33932837843895,51.4426907541637
286350,-0.340364187955856,51.5628804017042
286460,-0.340571343898773,51.8032683422785
286570,-0.341192841529846,51.8633631660488
286680,-0.340571343898773,52.0436562828529
286790,-0.340364187955856,52.1037511066231
286900,-0.341192841529846,52.0436562828529
287010,-0.34160715341568,51.9234666353123
287120,-0.34160715341568,51.3826045758867
287230,-0.340985685586929,51.4426993996569
287330,-0.34077849984169,51.622992516461
287440,-0.341814309358597,51.4427080451502
287550,-0.341399997472763,51.38261322138
287660,-0.340985685586929,51.38261322138
287770,-0.341814309358597,51.2624235738394
287880,-0.340571343898773,51.2023287500692
287990,-0.342021465301514,50.7215615144138
288100,-0.340364187955856,50.8417511619543
288210,-0.34077849984169,50.9619494549881
288320,-0.340571343898773,51.0821477480219
288430,-0.340571343898773,51.3826305123665
288540,-0.340985685586929,51.4427253361368
288640,-0.340985685586929,51.502820159907
288750,-0.34160715341568,51.6230098074476
288860,-0.341399997472763,51.322527043103
288970,-0.340364187955856,51.5629149836773
289080,-0.341192841529846,51.6230098074476
289190,-0.34077849984169,51.8033029242516
289300,-0.34077849984169,51.9835960410557
289410,-0.340364187955856,52.1037856885962
289520,-0.340985685586929,52.5244581004814
289630,-0.341192841529846,52.5845529242516
289740,-0.34243580698967,52.5244494549881
289850,-0.341192841529846,52.5244494549881
289960,-0.341192841529846,52.4042511619543
290060,-0.341192841529846,52.4042511619543
290170,-0.341399997472763,52.344156338184
290280,-0.34160715341568,51.8633891025286
290390,-0.340364187955856,52.0436822193327
290500,-0.341192841529846,51.8633891025286
290610,-0.340571343898773,52.1638718668732
290720,-0.340985685586929,52.2840615144138
290830,-0.340157032012939,52.4643459857246
290940,-0.342021465301514,52.1037683976097
291050,-0.340985685586929,52.16386322138
291160,-0.341192841529846,51.9835701045759
291270,-0.34160715341568,51.8032856332651
291370,-0.341814309358597,51.4427080451502
291480,-0.341399997472763,51.6830873402313
291590,-0.341192841529846,51.6830873402313
291700,-0.340985685586929,51.8032769877718
291810,-0.341399997472763,51.6830873402313
291920,-0.341399997472763,51.622992516461
292030,-0.342021465301514,51.2624149283462
292140,-0.340571343898773,51.8633804570354
292250,-0.340364187955856,52.5244408094948
292360,-0.342021465301514,52.4042511619543
292470,-0.339949876070023,52.7648287500692
292580,-0.341814309358597,52.2840615144138
292690,-0.34077849984169,52.2840615144138
292790,-0.34243580698967,51.8633891025286
292900,-0.34160715341568,51.5028115144138
293010,-0.340364187955856,51.9234839262989
293120,-0.340985685586929,51.9835787500692
293230,-0.341814309358597,51.5028115144138
293340,-0.34077849984169,51.322527043103
293450,-0.340364187955856,51.502820159907
293560,-0.340157032012939,51.6831046312178
293670,-0.340571343898773,52.103777043103
293780,-0.340157032012939,52.4643546312178
293890,-0.34077849984169,52.4643546312178
294000,-0.342021465301514,52.103777043103
294100,-0.34077849984169,52.2239753361368
294210,-0.340985685586929,52.3441649836773
294320,-0.34077849984169,52.2239753361368
294430,-0.342021465301514,51.9235012172854
294540,-0.34160715341568,52.1638891578598
294650,-0.341399997472763,51.8033115697449
294760,-0.341814309358597,51.7432167459747
294870,-0.340571343898773,51.6230270984341
294980,-0.341399997472763,51.44273398163
295090,-0.340985685586929,51.5629236291706
295200,-0.340985685586929,51.5629236291706
295310,-0.340985685586929,51.8633977480219
295420,-0.340364187955856,51.9234925717922
295520,-0.339535564184189,52.3441649836773
295630,-0.34160715341568,52.2239753361368
295740,-0.340571343898773,52.4643632767111
295850,-0.34077849984169,52.7648460410557
295960,-0.34160715341568,52.6446563935152
296070,-0.34160715341568,52.3441736291706
296180,-0.341399997472763,52.3441736291706
296290,-0.341192841529846,52.2239753361368
296400,-0.342642962932587,51.7432081004814
296510,-0.341192841529846,51.6831132767111
296620,-0.340364187955856,52.1638805123665
296730,-0.340985685586929,52.3441649836773
296830,-0.340985685586929,52.2840615144138
296940,-0.342021465301514,52.1638718668732
297050,-0.341814309358597,51.6831046312178
297160,-0.341399997472763,51.2023373955624
297270,-0.340157032012939,51.6230098074476
297380,-0.340571343898773,51.6230098074476
297490,-0.341814309358597,51.6831046312178
297600,-0.342228621244431,51.2624322193327
297710,-0.34160715341568,51.1422425717922
297820,-0.342228621244431,50.5412856885962
297930,-0.342021465301514,50.1807081004814
298040,-0.340571343898773,50.2408029242516
298150,-0.340571343898773,50.2408029242516
298250,-0.34160715341568,50.0605184529408
298360,-0.340571343898773,50.0004236291706
298470,-0.340985685586929,50.1206132767111
298580,-0.340571343898773,50.3610012172854
298690,-0.341192841529846,50.2408029242516
298800,-0.341192841529846,50.0004149836773
298910,-0.340985685586929,49.8802166906435
299020,-0.340985685586929,50.0605011619543
299130,-0.340157032012939,50.0605011619543
299240,-0.34077849984169,50.0605011619543
299350,-0.340985685586929,50.2407856332651
299460,-0.340985685586929,50.4210701045759
299560,-0.34077849984169,50.3609752808056
299670,-0.340985685586929,50.2407769877718
299780,-0.34160715341568,50.1806821640015
299890,-0.341192841529846,50.0604838709677
300000,-0.340364187955856,50.3008718115421
300110,-0.34077849984169,50.1806821640015
300220,-0.341192841529846,49.6398114590826
300330,-0.341399997472763,49.339328694738
300440,-0.341192841529846,49.1590355779339
300550,-0.340985685586929,49.2191304017042
300660,-0.341399997472763,48.9787424611299
300770,-0.341814309358597,48.5580700492447
300880,-0.34077849984169,48.6782683422785
300980,-0.34160715341568,48.6782683422785
301090,-0.341399997472763,48.7383631660488
301200,-0.341399997472763,48.6181735185083
301310,-0.340985685586929,48.5580700492447
301420,-0.341192841529846,48.7383545205555
301530,-0.340571343898773,48.9787424611299
301640,-0.341192841529846,48.9186476373596
301750,-0.34160715341568,48.9787424611299
301860,-0.342228621244431,48.4979752254745
301970,-0.341399997472763,48.6782596967853
302080,-0.341399997472763,48.3777769324407
302190,-0.340985685586929,48.3176734631771
302290,-0.34160715341568,48.0171906988325
302400,-0.341399997472763,47.7768027582582
302510,-0.342021465301514,47.4763286394069
302620,-0.341399997472763,47.3561389918663
302730,-0.341814309358597,47.2960441680961
302840,-0.341814309358597,47.1758545205555
302950,-0.341399997472763,46.8753717562109
303060,-0.341192841529846,46.8753717562109
303170,-0.340364187955856,46.9955614037515
303280,-0.340157032012939,47.1758458750623
303390,-0.341192841529846,46.9354579344879
303500,-0.34077849984169,46.9955614037515
303610,-0.340571343898773,47.1758545205555
303710,-0.34077849984169,47.6566304017042
303820,-0.341814309358597,47.4763459303934
303930,-0.34077849984169,47.5965442234272
304040,-0.341814309358597,47.4162597521164
304150,-0.34160715341568,47.3561649283462
304260,-0.34077849984169,47.5965528689205
304370,-0.341399997472763,47.2960701045759
304480,-0.340364187955856,47.5364580451502
304590,-0.342228621244431,47.0556908094948
304700,-0.340157032012939,47.2960787500692
304810,-0.342642962932587,46.5749235738394
304920,-0.340985685586929,46.8753976926908
305020,-0.341814309358597,46.6350183976097
305130,-0.341814309358597,46.4547339262989
305240,-0.34160715341568,46.4547339262989
305350,-0.340571343898773,46.8153115144138
305460,-0.34077849984169,46.9956046312178
305570,-0.341192841529846,46.9956046312178
305680,-0.341814309358597,46.7552253361368
305790,-0.341814309358597,46.6350356885962
305900,-0.340157032012939,46.9956132767111
306010,-0.340985685586929,47.2960873955624
306120,-0.34160715341568,46.9956046312178
306230,-0.340364187955856,46.9956046312178
306340,-0.341399997472763,47.1758891025286
306440,-0.341192841529846,46.8153115144138
306550,-0.340985685586929,47.0556908094948
306660,-0.342021465301514,46.69511322138
306770,-0.340364187955856,47.2960787500692
306880,-0.342021465301514,47.1758891025286
306990,-0.340364187955856,47.1758891025286
307100,-0.342021465301514,46.8754149836773
307210,-0.340985685586929,47.1157942787584
307320,-0.340571343898773,47.1758891025286
307430,-0.340157032012939,47.2359839262989
307540,-0.340571343898773,47.1157942787584
307650,-0.341399997472763,46.875406338184
307750,-0.341814309358597,46.3946391025286
307860,-0.340985685586929,46.3345356332651
307970,-0.341192841529846,46.5749149283462
308080,-0.340985685586929,46.5148114590826
308190,-0.34077849984169,46.5749149283462
308300,-0.340571343898773,46.6350097521164
308410,-0.341192841529846,46.8753890471975
308520,-0.34160715341568,46.8753890471975
308630,-0.341399997472763,46.8753890471975
308740,-0.341399997472763,46.995578694738
308850,-0.341814309358597,46.6350011066231
308960,-0.341814309358597,46.5148114590826
309070,-0.34160715341568,46.3345269877718
309170,-0.340985685586929,46.3345269877718
309280,-0.341399997472763,46.2143373402313
309390,-0.342228621244431,45.6734752808056
309500,-0.342021465301514,44.9523287500692
309610,-0.340985685586929,45.13261322138
309720,-0.34160715341568,44.8321304570354
309830,-0.34160715341568,44.591742516461
309940,-0.340157032012939,45.0124149283462
310050,-0.340571343898773,45.3128976926908
310160,-0.340571343898773,45.5532856332651
310270,-0.340985685586929,45.6133804570354
310380,-0.340985685586929,46.0941476926908
310480,-0.34077849984169,46.2143459857246
310590,-0.340985685586929,46.0340528689205
310700,-0.34160715341568,45.8537683976097
310810,-0.340985685586929,45.8537683976097
310920,-0.341399997472763,46.0340528689205
311030,-0.341192841529846,46.2143373402313
311140,-0.341399997472763,46.2143373402313
311250,-0.341814309358597,45.7335701045759
311360,-0.340985685586929,45.6133718115421
311470,-0.340985685586929,45.8537511066231
311580,-0.341399997472763,46.0941304017042
311690,-0.340364187955856,46.4547079898191
311800,-0.340571343898773,46.9354752254745
311900,-0.340985685586929,47.2359493443258
312010,-0.340157032012939,47.3561389918663
312120,-0.340985685586929,47.2359406988325
312230,-0.340985685586929,47.4162251701433
312340,-0.341399997472763,47.175837229569
312450,-0.34160715341568,46.9955527582582
312560,-0.34160715341568,46.6950699939136
312670,-0.340571343898773,46.8753631107176
312780,-0.340571343898773,47.0556562275217
312890,-0.341399997472763,46.9354665799812
313000,-0.340157032012939,47.1758545205555
313110,-0.341814309358597,46.6950872849001
313210,-0.340364187955856,46.8152769324407
313320,-0.341192841529846,46.7551821086704
313430,-0.341399997472763,46.6349924611299
313540,-0.340985685586929,46.5748889918663
313650,-0.341814309358597,46.3345096967853
313760,-0.341399997472763,46.3946045205555
313870,-0.341399997472763,46.3345096967853
313980,-0.34077849984169,46.2143200492447
314090,-0.341399997472763,46.0340269324407
314200,-0.341399997472763,45.9739321086704
314310,-0.341399997472763,45.9739321086704
314420,-0.341192841529846,45.9739321086704
314530,-0.341399997472763,45.8537424611299
314630,-0.340571343898773,46.0941304017042
314740,-0.34243580698967,45.9138372849001
314850,-0.34077849984169,45.9138372849001
314960,-0.34077849984169,46.1542252254745
315070,-0.34077849984169,46.3345183422785
315180,-0.34077849984169,46.5148114590826
315290,-0.342021465301514,46.2143373402313
315400,-0.34077849984169,46.3345356332651
315510,-0.34077849984169,46.2744408094948
315620,-0.340985685586929,46.3345356332651
315730,-0.34160715341568,46.3345356332651
315840,-0.341192841529846,46.6350097521164
315940,-0.342021465301514,46.4547252808056
316050,-0.34160715341568,46.3946304570354
316160,-0.341192841529846,46.3345356332651
316270,-0.340157032012939,46.7552080451502
316380,-0.341814309358597,46.6350183976097
316490,-0.340571343898773,47.0556908094948
316600,-0.340364187955856,47.3561735738394
316710,-0.341192841529846,47.5364580451502
316820,-0.340364187955856,47.9571304570354
316930,-0.340364187955856,48.25761322138
317040,-0.341192841529846,48.25761322138
317150,-0.340364187955856,48.25761322138
317260,-0.341399997472763,47.8970356332651
317360,-0.34077849984169,48.0172339262989
317470,-0.34160715341568,47.7768459857246
317580,-0.340985685586929,47.6566476926908
317690,-0.342642962932587,47.1157769877718
317800,-0.341814309358597,47.1157769877718
317910,-0.340364187955856,47.2359666353123
318020,-0.34160715341568,47.2960614590826
318130,-0.34160715341568,47.2960614590826
318240,-0.340364187955856,47.4162511066231
318350,-0.341399997472763,47.4162511066231
318460,-0.340571343898773,47.3561562828529
318570,-0.34243580698967,47.2960528135893
318670,-0.340985685586929,47.055664873015
318780,-0.341399997472763,47.4162424611299
318890,-0.34077849984169,47.4763459303934
319000,-0.34160715341568,47.5364407541637
319110,-0.339742720127106,48.1373976373596
319220,-0.340985685586929,48.3176821086704
319330,-0.342021465301514,47.8970096967853
319440,-0.341399997472763,47.7167165799812
319550,-0.341192841529846,47.7167165799812
319660,-0.341399997472763,47.8369062275217
319770,-0.341399997472763,47.9570958750623
319880,-0.340364187955856,47.897001051292
319990,-0.340985685586929,47.897001051292
320090,-0.34077849984169,48.1373889918663
320200,-0.34160715341568,47.7768114037515
320310,-0.340157032012939,48.1373889918663
320420,-0.341814309358597,47.9571045205555
320530,-0.341399997472763,47.836914873015
320640,-0.34077849984169,48.1974924611299
320750,-0.342021465301514,47.7167252254745
320860,-0.340364187955856,48.1974924611299
320970,-0.341399997472763,47.8970096967853
321080,-0.34160715341568,48.0171993443258
321190,-0.341814309358597,47.7768200492447
321300,-0.34160715341568,47.4763372849001
321400,-0.34160715341568,47.055664873015
321510,-0.341192841529846,46.8753717562109
321620,-0.34077849984169,47.055664873015
321730,-0.341814309358597,47.055664873015
321840,-0.340364187955856,47.2359579898191
321950,-0.34077849984169,47.3561562828529
322060,-0.339742720127106,47.7167338709677
322170,-0.340985685586929,47.6566304017042
322280,-0.340364187955856,47.7167252254745
322390,-0.342642962932587,47.2960528135893
322500,-0.340364187955856,47.6566304017042
322610,-0.341192841529846,47.7167252254745
322720,-0.340571343898773,47.9571131660488
322820,-0.340364187955856,48.3777855779339
322930,-0.341192841529846,48.5580700492447
323040,-0.340985685586929,48.7383545205555
323150,-0.340157032012939,48.9787424611299
323260,-0.340985685586929,49.0989321086704
323370,-0.340571343898773,49.5796993443258
323480,-0.341814309358597,49.6397941680961
323590,-0.340985685586929,49.6397941680961
323700,-0.341192841529846,49.7599838156366
323810,-0.340985685586929,49.9402682869474
323920,-0.34077849984169,49.7599838156366
324030,-0.341399997472763,49.5195958750623
324130,-0.342021465301514,49.0989234631771
324240,-0.341192841529846,49.0388286394069
324350,-0.34077849984169,49.0989321086704
324460,-0.34160715341568,48.8585441680961
324570,-0.34160715341568,48.6782596967853
324680,-0.340985685586929,48.8585441680961
324790,-0.34243580698967,48.4378717562109
324900,-0.34160715341568,48.3777769324407
325010,-0.340985685586929,48.4378717562109
325120,-0.341814309358597,48.3176821086704
325230,-0.341814309358597,48.3176821086704
325340,-0.340985685586929,48.3176821086704
325450,-0.340571343898773,48.4378804017042
325550,-0.341192841529846,48.4979752254745
325660,-0.339535564184189,48.7383545205555
325770,-0.341192841529846,48.5580614037515
325880,-0.340985685586929,48.5580614037515
325990,-0.340157032012939,48.5580614037515
326100,-0.341399997472763,48.4378717562109
326210,-0.340985685586929,48.4378717562109
326320,-0.339949876070023,48.8585441680961
326430,-0.34077849984169,49.0989321086704
326540,-0.34077849984169,49.3393200492447
326650,-0.341192841529846,49.1590269324407
326760,-0.341399997472763,48.9186389918663
326860,-0.342021465301514,48.7383545205555
326970,-0.341399997472763,48.3777769324407
327080,-0.340157032012939,48.8585441680961
327190,-0.341814309358597,48.4378717562109
327300,-0.34077849984169,48.5580700492447
327410,-0.340571343898773,48.7984579898191
327520,-0.34160715341568,48.6181735185083
327630,-0.339949876070023,49.1590355779339
327740,-0.341192841529846,49.2191304017042
327850,-0.34243580698967,48.9186476373596
327960,-0.341814309358597,48.618164873015
328070,-0.341192841529846,48.6782596967853
328180,-0.34077849984169,48.8585528135893
328280,-0.341192841529846,48.9186476373596
328390,-0.340985685586929,48.9787424611299
328500,-0.34077849984169,49.1590355779339
328610,-0.34077849984169,49.0989407541637
328720,-0.340985685586929,49.5196131660488
328830,-0.34160715341568,49.2792252254745
328940,-0.341399997472763,49.0989321086704
329050,-0.34077849984169,49.0989321086704
329160,-0.34077849984169,49.0989321086704
329270,-0.341814309358597,49.1590269324407
329380,-0.342021465301514,48.7984493443258
329490,-0.34077849984169,48.7984493443258
329590,-0.342228621244431,48.4378804017042
329700,-0.340985685586929,48.618164873015
329810,-0.340985685586929,48.6782596967853
329920,-0.340985685586929,48.9787338156366
330030,-0.340985685586929,49.1590182869474
330140,-0.342021465301514,48.9186389918663
330250,-0.34077849984169,48.7383545205555
330360,-0.34077849984169,49.0388372849001
330470,-0.341399997472763,48.7984493443258
330580,-0.34077849984169,48.6782596967853
330690,-0.341399997472763,48.618164873015
330800,-0.340985685586929,48.4378717562109
330910,-0.341399997472763,48.1373889918663
331010,-0.341192841529846,48.1373889918663
331120,-0.342642962932587,47.4763286394069
331230,-0.340985685586929,47.5965182869474
331340,-0.340364187955856,47.7167079344879
331450,-0.341814309358597,47.6566131107176
331560,-0.341399997472763,47.5364234631771
331670,-0.34160715341568,47.8369062275217
331780,-0.34077849984169,48.1373889918663
331890,-0.340985685586929,47.9570958750623
332000,-0.340985685586929,48.137380346373
332110,-0.34243580698967,47.8969924057987
332220,-0.340985685586929,47.7166992889946
332330,-0.340985685586929,47.8368889365352
332430,-0.340985685586929,47.7166906435014
332540,-0.341399997472763,48.017173407846
332650,-0.342021465301514,47.7166992889946
332760,-0.340364187955856,48.0171820533392
332870,-0.341192841529846,47.8969837603054
332980,-0.341814309358597,47.8368889365352
333090,-0.342850118875504,46.9354492889946
333200,-0.340985685586929,46.9354492889946
333310,-0.340364187955856,47.41621652465
333420,-0.341192841529846,47.4763113484203
333530,-0.340571343898773,47.6566044652244
333640,-0.341399997472763,47.6566044652244
333740,-0.340985685586929,47.7767941127649
333850,-0.340571343898773,47.7166992889946
333960,-0.341192841529846,47.6566044652244
334070,-0.341814309358597,47.3561217008798
334180,-0.340571343898773,47.6566044652244
334290,-0.339742720127106,47.7767941127649
334400,-0.342021465301514,47.7166992889946
334510,-0.341399997472763,47.7166992889946
334620,-0.34160715341568,47.4763113484203
334730,-0.340157032012939,48.017173407846
334840,-0.34077849984169,47.8969837603054
334950,-0.34077849984169,48.0772768771095
335060,-0.340985685586929,48.2575613484203
335160,-0.342228621244431,48.1373717008798
335270,-0.341399997472763,48.19746652465
335380,-0.341399997472763,48.2575613484203
335490,-0.342228621244431,47.957087229569
335600,-0.340157032012939,48.1373717008798
335710,-0.340364187955856,48.5580441127649
335820,-0.342021465301514,48.0772768771095
335930,-0.34077849984169,48.0772768771095
336040,-0.340985685586929,47.7166992889946
336150,-0.342642962932587,47.2359320533392
336260,-0.340364187955856,47.2359320533392
336370,-0.341192841529846,47.6566044652244
336470,-0.341192841529846,47.41621652465
336580,-0.341814309358597,47.2359320533392
336690,-0.340571343898773,47.2359320533392
336800,-0.340985685586929,47.0556389365352
336910,-0.340364187955856,47.2960268771095
337020,-0.341814309358597,47.0556475820284
337130,-0.340985685586929,46.8152596414541
337240,-0.341814309358597,46.574880346373
337350,-0.341399997472763,46.3344924057987
337460,-0.340985685586929,46.5748717008798
337570,-0.340985685586929,46.5748717008798
337680,-0.340985685586929,46.63496652465
337790,-0.340985685586929,46.63496652465
337890,-0.341814309358597,46.3344837603054
338000,-0.340985685586929,46.454673407846
338110,-0.340571343898773,46.8753458197311
338220,-0.341399997472763,46.8152509959608
338330,-0.340985685586929,46.7551475266973
338440,-0.341399997472763,46.8152423504676
338550,-0.340571343898773,47.1157251148122
338660,-0.341399997472763,46.9955354672716
338770,-0.341399997472763,47.2960182316162
338880,-0.34160715341568,47.2960182316162
338990,-0.34077849984169,47.3561217008798
339100,-0.340985685586929,47.5965009959608
339200,-0.34077849984169,47.8969837603054
339310,-0.340364187955856,48.0772768771095
339420,-0.34077849984169,48.0171820533392
339530,-0.340985685586929,48.0772768771095
339640,-0.34160715341568,47.4763199939136
339750,-0.341192841529846,47.4763199939136
339860,-0.341399997472763,47.356130346373
339970,-0.34160715341568,46.9354579344879
340080,-0.34160715341568,46.8753631107176
340190,-0.340571343898773,46.9955614037515
340300,-0.341399997472763,46.5748889918663
340410,-0.34077849984169,46.5748889918663
340520,-0.34243580698967,46.0941131107176
340620,-0.341399997472763,46.0340182869474
340730,-0.34160715341568,45.9739234631771
340840,-0.341192841529846,46.2143027582582
340950,-0.340985685586929,46.3344924057987
341060,-0.34160715341568,45.9138199939136
341170,-0.341192841529846,46.0941044652244
341280,-0.341399997472763,45.9138113484203
341390,-0.340985685586929,45.7936130553865
341500,-0.341399997472763,45.8537078791568
341610,-0.341399997472763,45.4330354672716
341720,-0.341399997472763,45.3729406435014
341830,-0.339742720127106,46.1541906435014
341930,-0.340571343898773,46.5147682316162
342040,-0.339949876070023,46.8753458197311
342150,-0.340571343898773,46.9354406435014
342260,-0.341192841529846,46.9354406435014
342370,-0.341192841529846,46.8753458197311
342480,-0.341399997472763,46.695052702927
342590,-0.341814309358597,46.3945699385824
342700,-0.341192841529846,46.3344751148122
342810,-0.340364187955856,46.695052702927
342920,-0.341192841529846,46.7551475266973
343030,-0.34160715341568,46.5147595861229
343140,-0.341814309358597,46.2142768217783
343250,-0.341192841529846,46.3945612930891
343350,-0.342021465301514,46.3945612930891
343460,-0.34160715341568,46.1541733525148
343570,-0.340985685586929,46.5147422951364
343680,-0.341192841529846,46.4546474713661
343790,-0.340571343898773,46.5748457643999
343900,-0.340985685586929,46.5748457643999
344010,-0.34160715341568,46.3945612930891
344120,-0.34077849984169,46.755138881204
344230,-0.342642962932587,46.2142681762851
344340,-0.34077849984169,46.2142681762851
344450,-0.340985685586929,46.3344578238256
344560,-0.341192841529846,46.2142595307918
344660,-0.34077849984169,46.3945526475959
344770,-0.340364187955856,46.5748457643999
344880,-0.34160715341568,46.5147509406297
344990,-0.34077849984169,46.6349492336635
345100,-0.341399997472763,46.9955268217783
345210,-0.341192841529846,46.9354319980081
345320,-0.34160715341568,46.5748544098932
345430,-0.340985685586929,46.8152337049743
345540,-0.341192841529846,46.8753285287445
345650,-0.34077849984169,47.1157164693189
345760,-0.341399997472763,46.9354233525148
345870,-0.342021465301514,46.6349492336635
345980,-0.340985685586929,46.6349492336635
346080,-0.342021465301514,46.7551475266973
346190,-0.340364187955856,46.9354406435014
346300,-0.34160715341568,46.7551561721906
346410,-0.340985685586929,46.7551561721906
346520,-0.34077849984169,46.9354492889946
346630,-0.340364187955856,47.41621652465
346740,-0.339949876070023,47.5364061721906
346850,-0.341399997472763,47.4763113484203
346960,-0.342021465301514,47.41621652465
347070,-0.34160715341568,47.7767941127649
347180,-0.34243580698967,47.3561217008798
347290,-0.340985685586929,47.1758285840757
347390,-0.340985685586929,47.235923407846
347500,-0.341399997472763,46.9955354672716
347610,-0.341192841529846,47.0556302910419
347720,-0.341814309358597,46.8152509959608
347830,-0.34160715341568,46.5147682316162
347940,-0.34077849984169,46.63496652465
348050,-0.34160715341568,46.6950613484203
348160,-0.34160715341568,46.3945785840757
348270,-0.341399997472763,45.9138113484203
348380,-0.340985685586929,46.2142854672716
348490,-0.34160715341568,46.1541906435014
348600,-0.340571343898773,46.454673407846
348710,-0.342228621244431,45.85371652465
348810,-0.340571343898773,45.9138113484203
348920,-0.340985685586929,45.8537078791568
349030,-0.342021465301514,45.5532337603054
349140,-0.34160715341568,45.7335182316162
349250,-0.34077849984169,45.9138113484203
349360,-0.340364187955856,46.2142941127649
349470,-0.34160715341568,46.3945785840757
349580,-0.342021465301514,45.85371652465
349690,-0.34160715341568,45.4931389365352
349800,-0.341192841529846,45.7335182316162
349910,-0.341192841529846,45.6133199385824
350020,-0.341192841529846,45.5532251148122
350120,-0.34160715341568,45.8537078791568
350230,-0.341192841529846,45.6133199385824
350340,-0.34077849984169,45.7335182316162
350450,-0.341192841529846,45.7335182316162
350560,-0.341192841529846,45.913802702927
350670,-0.341814309358597,45.5532251148122
350780,-0.34160715341568,45.3729406435014
350890,-0.34077849984169,45.2527509959608
351000,-0.341399997472763,45.3729406435014
351110,-0.341814309358597,45.1325613484203
351220,-0.34160715341568,45.1926561721906
351330,-0.340985685586929,45.3128458197311
351440,-0.340571343898773,45.4330441127649
351540,-0.341192841529846,45.3729492889946
351650,-0.341814309358597,45.1325699939136
351760,-0.341399997472763,45.012380346373
351870,-0.341192841529846,45.1926648176838
351980,-0.341399997472763,45.0724751701433
352090,-0.341399997472763,44.832087229569
352200,-0.34160715341568,44.7719924057987
352310,-0.342228621244431,44.4114234631771
352420,-0.339949876070023,44.8320958750623
352530,-0.340364187955856,44.8921906988325
352640,-0.341814309358597,44.772001051292
352750,-0.341399997472763,44.772001051292
352850,-0.341192841529846,44.8921906988325
352960,-0.339949876070023,45.1325699939136
353070,-0.342021465301514,44.8320958750623
353180,-0.341399997472763,44.6518027582582
353290,-0.341192841529846,44.4114148176838
353400,-0.339742720127106,44.7118889365352
353510,-0.340985685586929,44.7118889365352
353620,-0.340571343898773,45.0123717008798
353730,-0.34160715341568,44.8921820533392
353840,-0.34077849984169,45.0724751701433
353950,-0.341399997472763,45.1325699939136
354060,-0.34160715341568,45.1325699939136
354170,-0.34160715341568,44.832087229569
354270,-0.341399997472763,44.832087229569
354380,-0.34077849984169,44.832087229569
354490,-0.34077849984169,45.3128631107176
354600,-0.340157032012939,45.6734406988325
354710,-0.340571343898773,45.9739234631771
354820,-0.342021465301514,45.7335441680961
354930,-0.342021465301514,45.4330700492447
355040,-0.339742720127106,45.9739321086704
355150,-0.341192841529846,45.9739321086704
355260,-0.34077849984169,46.1542252254745
355370,-0.341192841529846,46.0941304017042
355480,-0.342228621244431,45.8537511066231
355580,-0.341192841529846,45.9138459303934
355690,-0.34305727481842,45.433078694738
355800,-0.341814309358597,44.8321218115421
355910,-0.342021465301514,44.411449399657
356020,-0.34160715341568,43.9306821640016
356130,-0.34077849984169,43.8705873402313
356240,-0.341399997472763,43.810492516461
356350,-0.34160715341568,43.6903028689205
356460,-0.340571343898773,43.9306908094948
356570,-0.34243580698967,43.7503976926908
356680,-0.341399997472763,43.6903028689205
