time,raw,transformed
7864,-0.34305727481842,0
7966,-0.343264430761337,0
8075,-0.34305727481842,0
8182,-0.34305727481842,0
8292,-0.344507396221161,0
8402,-0.343264430761337,0
8512,-0.343264430761337,0
8621,-0.343471586704254,0
8728,-0.343678742647171,100
8837,-0.343471586704254,100
8947,-0.34388592839241,100
9058,-0.344507396221161,93.3328058464726
9167,-0.343471586704254,93.8456669352054
9274,-0.343678742647171,92.8567318284194
9383,-0.342850118875504,60.8336780017623
9498,-0.342642962932587,56.9448329603581
9602,-0.342850118875504,58.8239055212892
9713,-0.344093084335327,56.7904589371994
9820,-0.342850118875504,58.4798593350384
9929,-0.343471586704254,58.3336796675204
10042,-0.34305727481842,59.2596060163199
10150,-0.344300240278244,57.0710299930254
10262,-0.34243580698967,53.4786173974347
10366,-0.343678742647171,52.9170443047374
10475,-0.34305727481842,53.6003797960037
10590,-0.343678742647171,53.0773214643381
10699,-0.343264430761337,53.3337382785678
10805,-0.344714552164078,55.5197820018904
10912,-0.343471586704254,55.4862050024405
11021,-0.342850118875504,56.3639454892626
11135,-0.344300240278244,55.1322562926059
11244,-0.343678742647171,54.829850121629
11351,-0.344093084335327,53.9947749842855
11458,-0.343471586704254,54.0109889264481
11567,-0.343471586704254,54.0262763576298
11679,-0.344507396221161,52.7780684087077
11790,-0.343264430761337,53.0715487007511
11898,-0.341814309358597,43.2330054450928
12004,-0.34305727481842,43.5896645451087
12113,-0.344093084335327,43.0356262074076
12227,-0.34388592839241,42.6828265775355
12334,-0.343264430761337,42.857044992356
12442,-0.344093084335327,42.3586981561873
12550,-0.34388592839241,42.045337774972
12659,-0.343471586704254,42.0633811500682
12771,-0.34305727481842,42.3911926543205
12880,-0.34160715341568,40.8510148556822
12990,-0.344507396221161,40.1388382709774
13099,-0.343264430761337,40.2720605635098
13205,-0.344300240278244,39.7332809038327
13317,-0.343471586704254,39.7385144511159
13426,-0.345336049795151,48.8249835697509
13535,-0.344093084335327,48.5326882822706
13643,-0.343678742647171,48.4569899300447
13751,-0.343264430761337,48.5860596033946
13865,-0.344093084335327,48.313689491429
13972,-0.343471586704254,48.3432808970747
14081,-0.343678742647171,48.2760687654351
14188,-0.343264430761337,48.3994544128739
14300,-0.342642962932587,48.7964983229562
14409,-0.34305727481842,48.9983794048019
14518,-0.342642962932587,49.3729553663022
14627,-0.343471586704254,49.3829147987927
14734,-0.344300240278244,49.0453366141575
14845,-0.344093084335327,48.8036134867599
14957,-0.343471586704254,48.8217466098879
15064,-0.344300240278244,48.507659510966
15173,-0.34305727481842,48.6930063463279
15280,-0.34243580698967,49.1145209118729
15391,-0.343678742647171,49.0478131454471
15500,-0.343471586704254,49.0612298562597
15610,-0.342642962932587,49.3829084557253
15719,-0.343471586704254,49.3913672387049
15826,-0.34388592839241,49.2494400555391
15935,-0.343471586704254,49.2594528496415
16050,-0.343471586704254,49.2692021491624
16156,-0.34388592839241,49.1343911561138
16265,-0.343264430761337,49.2167171921165
16372,-0.343471586704254,49.2266372227627
16481,-0.344093084335327,49.0279709241451
16591,-0.344507396221161,48.697039043983
16702,-0.344714552164078,48.3064296200306
16811,-0.34388592839241,48.1929636689992
16918,-0.344921708106995,47.7515193863773
17027,-0.344093084335327,47.5818936681056
17141,-0.343264430761337,47.6746137645737
17251,-0.344300240278244,47.4459160314431
17357,-0.34305727481842,47.6012038528517
17463,-0.34243580698967,47.9402634878649
17574,-0.34388592839241,47.8396911789388
17683,-0.344300240278244,47.6192320558972
17794,-0.343471586704254,47.6451143119554
17904,-0.34305727481842,47.7899114087669
18010,-0.343678742647171,47.7543270029501
18120,-0.344300240278244,47.5440489395732
18230,-0.343678742647171,47.5117669429321
18340,-0.34305727481842,47.6519677405876
18453,-0.343471586704254,47.6759313311243
18556,-0.343471586704254,47.699410808721
18666,-0.344507396221161,47.4446415869446
18780,-0.34305727481842,47.5799544852458
18886,-0.342850118875504,47.7670791144764
18996,-0.34305727481842,47.8966341164273
19103,-0.34305727481842,48.0236976760336
19212,-0.344300240278244,47.8308806599018
19323,-0.343678742647171,47.7989381750165
19432,-0.343471586704254,47.8195125809801
19544,-0.34305727481842,47.9425841711149
19648,-0.34388592839241,47.8595215244485
19758,-0.344507396221161,47.6264575890532
19868,-0.345128864049912,47.247446453815
19978,-0.34305727481842,47.3712303632934
20088,-0.343678742647171,47.3453343181501
20194,-0.343471586704254,47.3686243645981
20304,-0.34388592839241,47.2948863760742
20418,-0.343678742647171,47.2703181940576
20523,-0.343678742647171,47.2461699809624
20634,-0.343678742647171,47.2224310596152
20740,-0.34305727481842,47.3391437760521
20854,-0.34305727481842,47.4539112805473
20962,-0.343471586704254,47.4749566386685
21070,-0.343678742647171,47.4501207421381
21179,-0.342850118875504,47.6063528228254
21286,-0.343471586704254,47.6256596517793
21396,-0.343471586704254,47.6446575714701
21509,-0.343264430761337,47.7074445904618
21616,-0.343678742647171,47.6817558713405
21723,-0.344714552164078,47.4394536089066
21832,-0.34388592839241,47.2658404164768
21941,-0.343471586704254,47.2224386793584
22055,-0.344300240278244,46.9620220126917
22162,-0.343471586704254,46.8752185384548
22271,-0.342642962932587,47.2658404164768
22378,-0.344093084335327,47.0922272240471
22487,-0.343264430761337,47.0922272240471
22603,-0.344093084335327,46.9620157687359
22708,-0.344300240278244,46.8318043134246
22817,-0.342642962932587,47.0054112618985
22924,-0.343678742647171,47.0488192429728
23033,-0.34388592839241,47.1790244543282
23149,-0.343678742647171,47.1356227172097
23254,-0.343678742647171,47.1356227172097
23362,-0.344093084335327,46.8752060505431
23470,-0.343471586704254,46.7015991020692
23579,-0.343471586704254,46.5713938907138
23691,-0.343678742647171,46.6582036089066
23803,-0.34388592839241,46.4411886793584
23909,-0.344714552164078,46.1807720126917
24016,-0.343264430761337,46.1373702755732
24125,-0.342642962932587,46.4845904164768
24237,-0.344093084335327,46.1373702755732
24348,-0.34305727481842,46.2675754869286
24455,-0.343471586704254,46.1807720126917
24562,-0.343471586704254,46.2241737498102
24671,-0.342642962932587,46.3543789611656
24785,-0.343264430761337,46.6581973649507
24894,-0.34388592839241,46.5713876467579
25003,-0.344093084335327,46.3109709800913
25108,-0.344093084335327,46.3543727172097
25217,-0.343678742647171,46.3543727172097
25329,-0.342642962932587,46.6581911209949
25438,-0.343471586704254,46.6581911209949
25548,-0.344093084335327,46.5279796656836
25654,-0.342850118875504,46.8751998065872
25763,-0.343264430761337,46.8751998065872
25873,-0.344507396221161,46.3109647361354
25984,-0.34388592839241,46.1373515437057
26094,-0.34388592839241,46.1807532808242
26204,-0.342228621244431,46.5279796656836
26309,-0.344507396221161,46.267562999017
26423,-0.34305727481842,46.4845779285652
26530,-0.343264430761337,46.6147893838764
26637,-0.34305727481842,46.7015928581133
26746,-0.34388592839241,46.5279796656836
26855,-0.344714552164078,45.8769411209949
26967,-0.342850118875504,46.2241612618985
27076,-0.344507396221161,45.9637445952318
27185,-0.344093084335327,46.0071463323503
27294,-0.343471586704254,46.0071463323503
27403,-0.34305727481842,46.4845779285652
27511,-0.344300240278244,46.4411761914467
27622,-0.343678742647171,46.4411761914467
27731,-0.343678742647171,46.3543727172097
27838,-0.343471586704254,46.484584172521
27948,-0.344507396221161,46.2675692429728
28060,-0.343678742647171,46.2675692429728
28168,-0.342850118875504,46.3543727172097
28277,-0.344507396221161,45.9637508391877
28384,-0.343264430761337,45.9203491020692
28493,-0.342642962932587,45.9203491020692
28605,-0.343264430761337,45.9637508391877
28714,-0.342850118875504,46.2675692429728
28823,-0.343471586704254,46.3977806982841
28930,-0.34077849984169,46.9620157687359
29039,-0.340985685586929,47.6564560505431
29150,-0.341814309358597,47.9168727172097
29260,-0.34305727481842,47.7866675058543
29369,-0.342850118875504,47.9602744543282
29477,-0.343471586704254,47.9602744543282
29585,-0.343678742647171,47.7432657687359
29700,-0.34305727481842,47.8300692429728
29806,-0.34388592839241,47.8300692429728
29915,-0.343471586704254,47.8300692429728
30022,-0.343471586704254,47.8300692429728
30131,-0.34305727481842,48.0036824354025
30242,-0.34243580698967,48.1772893838764
30355,-0.342228621244431,48.4377060505431
30461,-0.342642962932587,48.7415244543282
30568,-0.34243580698967,49.1755480694688
30677,-0.34305727481842,49.5227682103724
30787,-0.343264430761337,49.6529796656836
30900,-0.343678742647171,49.9133963323503
31007,-0.342850118875504,50.173812999017
31114,-0.343678742647171,50.08700952478
31223,-0.342850118875504,50.3908279285652
31337,-0.34305727481842,50.3908279285652
31442,-0.343678742647171,50.1304175058543
31556,-0.344714552164078,49.9568105573805
31660,-0.343264430761337,50.1738254869287
31769,-0.343678742647171,50.1304237498102
31881,-0.343471586704254,50.0436202755732
31990,-0.343678742647171,50.0436202755732
32100,-0.344300240278244,50.0436202755732
32206,-0.34388592839241,50.0002122944989
32315,-0.343678742647171,49.8700070831435
32429,-0.34243580698967,50.0870157687359
32536,-0.343471586704254,50.0870157687359
32646,-0.34305727481842,50.390834172521
32755,-0.343678742647171,50.2606289611656
32861,-0.342642962932587,50.3040306982841
32975,-0.34305727481842,50.3040306982841
33082,-0.343471586704254,50.2172272240471
33191,-0.343264430761337,50.4342421535953
33300,-0.344093084335327,50.3474324354025
33407,-0.343678742647171,50.3040306982841
33519,-0.344300240278244,50.0436140316174
33628,-0.343471586704254,50.1304237498102
33737,-0.344300240278244,50.1738254869287
33846,-0.342850118875504,50.6512508391877
33956,-0.342642962932587,50.7380543134246
34064,-0.343471586704254,50.7814560505431
34174,-0.343678742647171,50.7380543134246
34280,-0.343264430761337,50.8682657687359
34390,-0.343264430761337,50.9550692429728
34502,-0.34388592839241,50.9116612618985
34610,-0.343471586704254,50.955062999017
34720,-0.344300240278244,50.6946463323503
34826,-0.342850118875504,50.7380480694688
34936,-0.343678742647171,50.6946463323503
35050,-0.344300240278244,50.564434877039
35157,-0.34305727481842,50.5210331399206
35267,-0.344507396221161,50.3040182103724
35373,-0.343678742647171,50.2606164732539
35483,-0.34305727481842,50.3040182103724
35593,-0.343471586704254,50.3474199474908
35704,-0.344300240278244,50.4342234217278
35813,-0.343678742647171,50.4776314028021
35919,-0.344300240278244,50.3040182103724
36029,-0.342642962932587,50.651238351276
36141,-0.343471586704254,50.651238351276
36250,-0.344300240278244,50.3040182103724
36359,-0.343471586704254,50.4342296656836
36465,-0.344921708106995,50.08700952478
36575,-0.344507396221161,50.0002060505431
36687,-0.34305727481842,50.2606227172097
36795,-0.343678742647171,50.0436140316174
36907,-0.345128864049912,49.7397956278323
37011,-0.344093084335327,49.6963938907138
37120,-0.343471586704254,49.7397956278323
37230,-0.344300240278244,49.609584172521
37341,-0.343471586704254,49.7397956278323
37452,-0.344507396221161,49.5227806982841
37557,-0.344300240278244,49.3491675058543
37666,-0.34388592839241,49.30575952478
37780,-0.344300240278244,49.2189560505431
37887,-0.343678742647171,49.4359709800913
37998,-0.344300240278244,49.2189560505431
38107,-0.343678742647171,49.0019473649507
38212,-0.344093084335327,49.0019473649507
38323,-0.343471586704254,48.9151438907138
38433,-0.343678742647171,48.8717421535953
38542,-0.344507396221161,48.6547272240471
38650,-0.344507396221161,48.264105346025
38758,-0.343471586704254,48.2207036089066
38868,-0.344714552164078,48.0470966604327
38979,-0.343471586704254,48.177308115744
39088,-0.34305727481842,48.3943230452922
39195,-0.344714552164078,48.177308115744
39307,-0.343264430761337,48.0471029043886
39418,-0.344714552164078,47.7866862377219
39523,-0.34388592839241,47.8300879748404
39634,-0.34305727481842,47.7866862377219
39741,-0.343471586704254,47.7432845006034
39850,-0.344093084335327,47.8300879748404
39962,-0.34388592839241,47.8300879748404
40071,-0.34388592839241,47.8300879748404
40180,-0.344507396221161,47.3526563786255
40287,-0.343264430761337,47.6130730452922
40398,-0.345128864049912,47.1790494301516
40511,-0.34305727481842,47.2224511672701
40617,-0.343678742647171,47.0922459559147
40726,-0.344921708106995,46.8752372703223
40833,-0.345128864049912,46.7884337960854
40942,-0.343264430761337,46.7016303218485
41057,-0.34305727481842,47.0054487256336
41163,-0.342642962932587,47.3092671294187
41272,-0.343678742647171,47.2658653923003
41379,-0.342850118875504,47.3092671294187
41488,-0.343678742647171,47.43947858473
41600,-0.343678742647171,47.43947858473
41709,-0.34305727481842,47.5696837960854
41818,-0.343678742647171,47.5262820589669
41925,-0.343471586704254,47.7432969885151
42034,-0.343471586704254,47.7866987256336
42150,-0.343471586704254,47.6564935142782
42257,-0.344300240278244,47.6998952513966
42362,-0.345128864049912,47.3092733733746
42471,-0.34160715341568,47.5262883029228
42580,-0.34305727481842,47.5696900400412
42694,-0.34388592839241,47.352675110493
42802,-0.343471586704254,47.352675110493
42910,-0.344093084335327,46.65822858473
43017,-0.343678742647171,46.093999758234
43126,-0.34305727481842,45.8335830915674
43238,-0.343471586704254,45.7467796173304
43348,-0.34243580698967,45.8335830915674
43456,-0.34388592839241,45.7467733733746
43563,-0.343471586704254,45.790175110493
43672,-0.344093084335327,45.5731601809448
43786,-0.34388592839241,45.5731601809448
43893,-0.344300240278244,45.3995469885151
44002,-0.34388592839241,45.3127372703223
44109,-0.344714552164078,44.9655171294187
44218,-0.344507396221161,44.5314935142782
44330,-0.344507396221161,44.0540619180633
44439,-0.343678742647171,43.837053232471
44550,-0.343678742647171,43.5766428097602
44657,-0.34305727481842,43.5766428097602
44764,-0.34388592839241,43.4464313544489
44876,-0.343678742647171,43.4464313544489
44985,-0.344300240278244,43.1426129506638
45094,-0.343471586704254,43.1860146877822
45202,-0.34388592839241,42.968999758234
45310,-0.343471586704254,42.8821962839971
45424,-0.343678742647171,42.8821962839971
45531,-0.344300240278244,42.968999758234
45640,-0.34305727481842,43.0124014953525
45748,-0.344093084335327,42.9255917771597
45857,-0.34305727481842,43.0123952513966
45968,-0.342228621244431,43.3162136551818
46077,-0.343678742647171,43.446425110493
46186,-0.34305727481842,43.6200383029228
46293,-0.34388592839241,43.5766303218485
46402,-0.34388592839241,43.2728119180633
46512,-0.343471586704254,43.2728119180633
46623,-0.343678742647171,43.1426067067079
46732,-0.342642962932587,43.3596153923003
46839,-0.34305727481842,43.2728119180633
46948,-0.343678742647171,43.1426067067079
47062,-0.343678742647171,43.0992049695894
47169,-0.343678742647171,43.0124014953525
47278,-0.34388592839241,43.055803232471
47385,-0.34305727481842,43.1860084438264
47494,-0.34305727481842,43.446425110493
47606,-0.34243580698967,43.6634337960854
47715,-0.343471586704254,43.8370469885151
47824,-0.34243580698967,43.9238504627521
47931,-0.343471586704254,43.7502435142782
48040,-0.34305727481842,43.8370469885151
48152,-0.344093084335327,43.7502372703223
48261,-0.34388592839241,43.6200258150111
48370,-0.34243580698967,43.7936327634849
48477,-0.343264430761337,43.9238442187962
48586,-0.344300240278244,43.7502310263665
48702,-0.34388592839241,43.8370345006034
48807,-0.344300240278244,43.5332160968183
48916,-0.344093084335327,43.4464063786255
49023,-0.343678742647171,43.5766178339368
49132,-0.343678742647171,43.4464126225813
49242,-0.342642962932587,43.8370345006034
49356,-0.342850118875504,44.0106414490773
49462,-0.344507396221161,43.7068230452922
49569,-0.34305727481842,43.7936265195291
49678,-0.342642962932587,44.1408466604327
49788,-0.342850118875504,44.3144536089066
49900,-0.344093084335327,44.357855346025
50008,-0.344093084335327,44.0540369422399
50115,-0.344507396221161,43.8370220126917
50224,-0.344093084335327,43.8804237498102
50338,-0.34305727481842,43.9672272240471
50442,-0.34243580698967,44.4880543134246
50557,-0.343678742647171,44.6616675058543
50661,-0.342850118875504,44.7050692429728
50770,-0.343678742647171,44.7050692429728
50882,-0.343264430761337,45.0956911209949
50991,-0.343678742647171,45.1825008391877
51102,-0.344093084335327,45.0522893838764
51207,-0.343678742647171,45.1825008391877
51316,-0.34388592839241,45.0956911209949
51426,-0.344714552164078,45.0522893838764
51537,-0.343471586704254,45.2259025763061
51648,-0.343264430761337,45.3561140316174
51757,-0.34388592839241,45.4429175058543
51862,-0.342642962932587,45.6599261914467
51976,-0.343678742647171,45.7901376467579
52082,-0.34388592839241,45.7467296656836
52192,-0.343471586704254,45.8769411209949
52300,-0.344300240278244,45.7033279285652
52408,-0.34305727481842,45.8335331399206
52521,-0.345128864049912,45.7033279285652
52629,-0.343678742647171,45.8769411209949
52739,-0.344507396221161,45.6599261914467
52845,-0.343678742647171,45.8769411209949
52958,-0.344714552164078,45.6165244543282
53069,-0.34388592839241,45.4429112618985
53176,-0.34388592839241,45.6165182103724
53283,-0.343678742647171,45.5297147361354
53391,-0.342850118875504,45.9203366141575
53501,-0.344093084335327,45.876934877039
53613,-0.343678742647171,45.7467296656836
53721,-0.344507396221161,45.5297147361354
53831,-0.342850118875504,45.7901314028021
53937,-0.344093084335327,45.7467296656836
54049,-0.34305727481842,45.9203428581133
54159,-0.344093084335327,46.0071463323503
54267,-0.345336049795151,45.5731164732539
54377,-0.343264430761337,45.963738351276
54483,-0.343678742647171,45.8335331399206
54593,-0.344921708106995,45.5731164732539
54708,-0.34388592839241,45.7901251588462
54813,-0.342850118875504,46.2675505111052
54923,-0.343264430761337,46.2675505111052
55029,-0.345128864049912,45.8335268959647
55139,-0.34305727481842,45.7467234217278
55253,-0.34243580698967,46.0071338444386
55359,-0.343471586704254,45.8769286330832
55469,-0.343264430761337,45.9637321073201
55575,-0.344093084335327,45.8769223891273
55685,-0.343678742647171,45.7467171777719
55799,-0.343264430761337,45.8335206520089
55908,-0.343471586704254,45.8335206520089
56015,-0.343678742647171,45.7901189148904
56121,-0.34305727481842,45.8769223891273
56231,-0.343678742647171,46.0071338444386
56345,-0.34388592839241,46.2675442671494
56453,-0.344714552164078,45.6165057224607
56560,-0.344093084335327,45.3994907929125
56667,-0.343678742647171,45.4428987739868
56776,-0.343264430761337,45.4863005111052
56888,-0.344093084335327,45.4863005111052
56999,-0.34388592839241,45.4428925300309
57107,-0.343471586704254,45.356089055794
57213,-0.343264430761337,45.3994907929125
57322,-0.343678742647171,45.1390803702016
57432,-0.344300240278244,45.0522768959647
57543,-0.34305727481842,45.1390803702016
57653,-0.343264430761337,45.3126935626314
57759,-0.34388592839241,45.3126935626314
57868,-0.344093084335327,45.3560952997498
57980,-0.343471586704254,45.4429050179426
58089,-0.343264430761337,45.7467234217278
58199,-0.343264430761337,46.0071400883944
58309,-0.344300240278244,46.0505418255129
58414,-0.343471586704254,46.0939435626314
58526,-0.344921708106995,45.8335268959647
58635,-0.344300240278244,45.573110229298
58744,-0.34388592839241,45.573110229298
58853,-0.34388592839241,45.5297022482237
58960,-0.34388592839241,45.6165057224607
59070,-0.343471586704254,45.6165057224607
59181,-0.342850118875504,45.8335206520089
59290,-0.344093084335327,45.7033091966976
59397,-0.342850118875504,45.8769161451715
59509,-0.34388592839241,45.9637196194084
59620,-0.344093084335327,45.7467046898602
59727,-0.343678742647171,45.833514408053
59836,-0.34388592839241,45.6599012156233
59943,-0.344921708106995,45.0956661451715
60052,-0.344093084335327,45.0088564269787
60162,-0.34388592839241,44.835243234549
60273,-0.34305727481842,45.0088564269787
60382,-0.345128864049912,44.7484460042679
60489,-0.34305727481842,44.8352494785048
60600,-0.34388592839241,44.7918414974305
60709,-0.343471586704254,44.6182345489566
60819,-0.343678742647171,44.4880293376012
60928,-0.343678742647171,44.4880293376012
61035,-0.344093084335327,44.4012196194084
61144,-0.344093084335327,44.3144099012156
61259,-0.34305727481842,44.4880230936454
61365,-0.343471586704254,44.4012196194084
61474,-0.343264430761337,44.3578178822899
61581,-0.343678742647171,44.0974074595791
61690,-0.344300240278244,43.9237942671494
61802,-0.343471586704254,43.7067855815571
61911,-0.34388592839241,43.6199758633643
62020,-0.343471586704254,43.5331723891273
62127,-0.343678742647171,43.6199821073201
62236,-0.345128864049912,43.3595716846093
62346,-0.344093084335327,43.0123515437057
62459,-0.343264430761337,43.0123515437057
62566,-0.342228621244431,43.4463814028021
62673,-0.343678742647171,43.4897893838764
62782,-0.343678742647171,43.6200008391877
62896,-0.343471586704254,43.7502122944989
63004,-0.344921708106995,43.4897956278323
63112,-0.34388592839241,43.4463876467579
63219,-0.345128864049912,42.9255605573805
63328,-0.34388592839241,42.7085456278323
63440,-0.343678742647171,42.882158820262
63550,-0.343678742647171,42.7519536089066
63659,-0.343264430761337,42.6217483975512
63765,-0.344093084335327,42.3613317308845
63874,-0.342850118875504,42.6217483975512
63988,-0.343471586704254,42.7519598528624
64095,-0.34388592839241,42.8821650642178
64202,-0.34305727481842,43.099179993766
64311,-0.34305727481842,43.099179993766
64420,-0.344921708106995,42.5783529043886
64532,-0.343264430761337,42.6651563786255
64641,-0.343678742647171,42.4915494301516
64750,-0.34388592839241,42.4481414490773
64859,-0.34388592839241,42.317929993766
64966,-0.343471586704254,42.3613317308845
65078,-0.343264430761337,42.5349449233142
65187,-0.343678742647171,42.5349449233142
65294,-0.343471586704254,42.621754641507
65405,-0.344300240278244,42.708558115744
65513,-0.342850118875504,42.8387633270994
65624,-0.343264430761337,42.8387633270994
65733,-0.344714552164078,42.6651563786255
65840,-0.343264430761337,42.5349511672701
65949,-0.344093084335327,42.4481414490773
66061,-0.343264430761337,42.5783529043886
66170,-0.343678742647171,42.5349511672701
66279,-0.344093084335327,42.5783529043886
66386,-0.344714552164078,42.2311327634849
66495,-0.343471586704254,42.5783529043886
66611,-0.343678742647171,42.5783529043886
66716,-0.343678742647171,42.7519660968183
66825,-0.344300240278244,42.621754641507
66932,-0.344300240278244,42.708558115744
67041,-0.344093084335327,42.6651563786255
67152,-0.344093084335327,42.621754641507
67262,-0.34388592839241,42.5783466604327
67371,-0.343264430761337,42.4915431861958
67478,-0.343678742647171,42.5783529043886
67587,-0.343471586704254,42.621754641507
67702,-0.343264430761337,42.8821713081737
67811,-0.344093084335327,42.621754641507
67917,-0.343471586704254,42.7519660968183
68024,-0.343678742647171,42.6217608854629
68133,-0.34305727481842,42.8387758150111
68242,-0.344507396221161,43.0123890074408
68354,-0.343678742647171,42.9255855332039
68463,-0.344921708106995,42.6651688665372
68569,-0.342642962932587,43.1425942187962
68679,-0.343471586704254,43.229403936989
68789,-0.34305727481842,43.1860021998705
68899,-0.343264430761337,43.1860021998705
69011,-0.343471586704254,43.5332223407741
69115,-0.343678742647171,43.4030171294187
69225,-0.34243580698967,43.4030171294187
69339,-0.343471586704254,43.4030171294187
69445,-0.34305727481842,43.4464188665372
69556,-0.344300240278244,43.4030171294187
69661,-0.343264430761337,43.4898206036557
69771,-0.343264430761337,43.4898206036557
69882,-0.343678742647171,43.4464188665372
69992,-0.344093084335327,43.3596091483444
70103,-0.344507396221161,43.0557907445593
70212,-0.344093084335327,42.9689810263665
70318,-0.345128864049912,42.7085706036557
70428,-0.343678742647171,42.9255855332039
70538,-0.34305727481842,43.1426004627521
70648,-0.343678742647171,43.1426004627521
70755,-0.34388592839241,43.0123890074408
70864,-0.343678742647171,43.0991987256336
70978,-0.342850118875504,43.3162136551818
71083,-0.343264430761337,43.3596153923003
71195,-0.344714552164078,43.0557969885151
71300,-0.344093084335327,42.9689872703223
71412,-0.343678742647171,43.0991987256336
71522,-0.34305727481842,43.0991987256336
71630,-0.343678742647171,43.0123952513966
71740,-0.343678742647171,43.055803232471
71846,-0.34305727481842,43.2728181620192
71957,-0.342228621244431,43.5332348286858
72070,-0.343678742647171,43.4464313544489
72176,-0.341814309358597,43.750249758234
72283,-0.344714552164078,43.6634462839971
72392,-0.343471586704254,43.6634462839971
72501,-0.343678742647171,43.9238629506638
72615,-0.343471586704254,44.0974761430935
72722,-0.344300240278244,44.0106726688566
72831,-0.34305727481842,44.1842858612863
72938,-0.343678742647171,44.2276938423606
73047,-0.344300240278244,44.0540806499309
73164,-0.342850118875504,44.0540806499309
73268,-0.343471586704254,44.1842921052421
73377,-0.344714552164078,43.79367022722
73484,-0.343264430761337,43.9238816825313
73593,-0.34388592839241,43.9672834196498
73709,-0.344093084335327,43.880473701457
73815,-0.344300240278244,43.79367022722
73923,-0.343678742647171,44.0540868938867
74030,-0.343471586704254,44.184298349198
74139,-0.343264430761337,44.3145098045092
74251,-0.344300240278244,44.0540931378426
74364,-0.342642962932587,44.57492022722
74469,-0.34388592839241,44.4013070347903
74576,-0.344300240278244,44.3145035605534
74685,-0.344300240278244,44.1408903681237
74797,-0.34305727481842,44.2710955794791
74907,-0.343264430761337,44.357899053716
75015,-0.342642962932587,44.6617174575011
75122,-0.343471586704254,44.7919289128124
75231,-0.34388592839241,44.6183157203827
75341,-0.343471586704254,44.6183157203827
75452,-0.34305727481842,44.6617174575011
75564,-0.344300240278244,44.5315060021899
75668,-0.343678742647171,44.6617174575011
75777,-0.342228621244431,44.9221341241678
75891,-0.344714552164078,44.7485271756939
75998,-0.344921708106995,44.4447087719088
76107,-0.343264430761337,44.5315122461457
76214,-0.342228621244431,45.139149053716
76323,-0.34388592839241,45.1825507908345
76433,-0.343471586704254,45.139149053716
76544,-0.34305727481842,44.9655358612863
76655,-0.344300240278244,44.835324405975
76763,-0.342642962932587,45.0523330915674
76869,-0.344093084335327,44.9221216362561
76981,-0.344093084335327,45.09572858473
77090,-0.343264430761337,45.2259400400412
77199,-0.343264430761337,45.6165619180633
77307,-0.342850118875504,45.8335768476115
77415,-0.343678742647171,45.8335768476115
77527,-0.34305727481842,45.9637820589669
77636,-0.34388592839241,45.8335706036557
77745,-0.344714552164078,45.7033653923003
77852,-0.344300240278244,45.3995469885151
77964,-0.344300240278244,45.2259337960854
78071,-0.34388592839241,45.2259337960854
78182,-0.343264430761337,45.1825320589669
78291,-0.344300240278244,44.9221153923003
78398,-0.34388592839241,45.1391240778926
78508,-0.343471586704254,45.0957223407741
78621,-0.343471586704254,45.1391240778926
78728,-0.342642962932587,45.3995407445593
78837,-0.344093084335327,45.3561390074408
78944,-0.34305727481842,45.4429424816777
79055,-0.343471586704254,45.3995407445593
79163,-0.34388592839241,45.3561327634849
79274,-0.344507396221161,45.1391178339368
79383,-0.343264430761337,45.3561327634849
79490,-0.344300240278244,45.0523143596998
79601,-0.344507396221161,44.7918976930331
79710,-0.343264430761337,45.0957160968183
79820,-0.343471586704254,45.0523143596998
79929,-0.343678742647171,45.1391240778926
80036,-0.343471586704254,45.0957223407741
80145,-0.343678742647171,45.0957223407741
80264,-0.343471586704254,45.2259337960854
80363,-0.343264430761337,45.5297521998705
80475,-0.342850118875504,45.6599574112259
80582,-0.342642962932587,45.8769660968183
80691,-0.344300240278244,45.746754641507
80805,-0.343264430761337,45.9637695710552
80913,-0.342642962932587,46.3109897119588
81021,-0.344921708106995,46.1373827634849
81128,-0.34305727481842,46.3543976930331
81237,-0.344921708106995,46.1373890074408
81347,-0.342228621244431,46.354403936989
81459,-0.343471586704254,46.3978056741075
81567,-0.342850118875504,46.5280108854629
81674,-0.343678742647171,46.4412074112259
81783,-0.342850118875504,46.7016240778926
81897,-0.344093084335327,46.5714126225813
82005,-0.344093084335327,46.4846029043886
82114,-0.34388592839241,46.3109897119588
82220,-0.343264430761337,46.5714063786255
82329,-0.34388592839241,46.5279983975512
82438,-0.343264430761337,46.8752185384548
82550,-0.342850118875504,46.8318168013363
82659,-0.344507396221161,46.6148018717881
82766,-0.342850118875504,46.6582036089066
82875,-0.344093084335327,46.4845904164768
82989,-0.343264430761337,46.5279921535953
83096,-0.34305727481842,46.6581973649507
83205,-0.344300240278244,46.2675754869286
83314,-0.34243580698967,46.484584172521
83421,-0.343471586704254,46.3977806982841
83533,-0.343471586704254,46.5713938907138
83642,-0.342642962932587,46.7015991020692
83751,-0.343264430761337,46.7015991020692
83859,-0.344093084335327,46.6147893838764
83967,-0.344093084335327,46.6147893838764
84079,-0.343678742647171,46.7884025763061
84188,-0.344507396221161,46.7015991020692
84297,-0.343678742647171,47.0054175058543
84405,-0.344714552164078,46.7884025763061
84513,-0.343471586704254,46.7015991020692
84627,-0.343471586704254,46.7450008391877
84734,-0.343471586704254,46.8318105573805
84843,-0.34388592839241,46.7884025763061
84950,-0.341814309358597,47.0054175058543
85060,-0.344093084335327,46.8318043134246
85171,-0.34160715341568,47.4828428581133
85280,-0.343678742647171,47.5696525763061
85389,-0.34388592839241,47.5262445952318
85496,-0.344093084335327,47.3092296656836
85605,-0.343264430761337,47.3960331399206
85717,-0.344507396221161,47.2224199474908
85826,-0.342642962932587,47.3092234217278
85935,-0.344921708106995,46.744988351276
86042,-0.344093084335327,46.6581786330832
86151,-0.343471586704254,46.3109584921796
86265,-0.344507396221161,46.354360229298
86369,-0.343678742647171,46.3109584921796
86481,-0.34388592839241,46.2675505111052
86588,-0.343471586704254,46.2675505111052
86697,-0.345128864049912,46.0939435626314
86809,-0.34388592839241,45.9203303702016
86918,-0.343678742647171,45.9203303702016
87027,-0.343471586704254,46.0939435626314
87134,-0.343471586704254,45.963738351276
87243,-0.342228621244431,46.2241550179426
87355,-0.343678742647171,46.4411699474908
87466,-0.343678742647171,46.3543664732539
87574,-0.344093084335327,46.3109647361354
87681,-0.343471586704254,46.4411761914467
87790,-0.343264430761337,46.6581911209949
87902,-0.344921708106995,46.3977744543282
88010,-0.344507396221161,46.18075952478
88120,-0.34243580698967,46.3543664732539
88226,-0.34305727481842,46.6147831399206
88336,-0.34388592839241,46.3543664732539
88448,-0.34243580698967,46.658184877039
88556,-0.343471586704254,46.8317980694688
88666,-0.342642962932587,47.1790182103724
88772,-0.343264430761337,47.1356164732539
88882,-0.343678742647171,47.048812999017
88992,-0.343264430761337,46.9186077876615
89102,-0.344300240278244,46.7449945952318
89215,-0.344507396221161,46.6147893838764
89318,-0.343678742647171,46.5713876467579
89428,-0.342642962932587,46.6581911209949
89537,-0.344300240278244,46.6581911209949
89648,-0.34388592839241,46.6147831399206
89758,-0.343471586704254,46.3543664732539
89866,-0.34388592839241,46.5279734217278
89974,-0.34305727481842,46.9185952997498
90084,-0.34388592839241,46.7883838444386
90194,-0.34243580698967,46.7449758633643
90306,-0.34305727481842,46.918589055794
90411,-0.34305727481842,47.0053925300309
90520,-0.343678742647171,46.8751873186755
90630,-0.343678742647171,47.0053987739868
90740,-0.343264430761337,46.8751935626314
90850,-0.34305727481842,47.0922084921796
90958,-0.34305727481842,47.3092234217278
91066,-0.34388592839241,47.1790119664165
91180,-0.34388592839241,47.0488005111052
91284,-0.34388592839241,46.8317855815571
91396,-0.344714552164078,46.6147706520089
91502,-0.344714552164078,46.2675505111052
91615,-0.344714552164078,46.0939435626314
91724,-0.34388592839241,46.2675505111052
91832,-0.344093084335327,46.3109522482237
91941,-0.343471586704254,46.4845654406534
92048,-0.342850118875504,46.7015803702016
92158,-0.344300240278244,46.4845654406534
92271,-0.34388592839241,46.5713689148904
92378,-0.344093084335327,46.5279671777719
92487,-0.344921708106995,46.2241487739868
92594,-0.344093084335327,46.0939373186755
92703,-0.343471586704254,45.9203303702016
92817,-0.34388592839241,45.9637321073201
92924,-0.343678742647171,45.8335268959647
93033,-0.342850118875504,45.9637321073201
93140,-0.343678742647171,46.0071400883944
93249,-0.342021465301514,46.5279734217278
93365,-0.344921708106995,46.1807532808242
93470,-0.344093084335327,46.2241550179426
93579,-0.343471586704254,46.4411699474908
93686,-0.343471586704254,46.3977682103724
93795,-0.34388592839241,46.3109584921796
93911,-0.344093084335327,46.2241487739868
94016,-0.344300240278244,46.0505355815571
94124,-0.34243580698967,46.3109460042679
94232,-0.34388592839241,46.2241362860751
94341,-0.34243580698967,46.397743234549
94453,-0.34388592839241,46.1807283050008
94565,-0.343471586704254,46.0071213565269
94671,-0.343471586704254,46.1807345489566
94778,-0.34305727481842,46.2241362860751
94887,-0.343471586704254,46.0505293376012
94999,-0.34305727481842,46.4411512156233
95108,-0.343264430761337,46.3977494785048
95217,-0.343264430761337,46.7449696194084
95324,-0.34305727481842,46.5713564269787
95433,-0.344300240278244,46.397743234549
95547,-0.344507396221161,46.0505230936454
95656,-0.343678742647171,46.0505230936454
95765,-0.34305727481842,46.0071213565269
95870,-0.34305727481842,46.2241362860751
95979,-0.343678742647171,46.3109460042679
96091,-0.343678742647171,46.3543539853422
96200,-0.343264430761337,46.3543539853422
96308,-0.343471586704254,46.441163703535
96416,-0.343678742647171,46.354360229298
96528,-0.34305727481842,46.3109584921796
96634,-0.34388592839241,46.441163703535
96746,-0.343471586704254,46.3109584921796
96853,-0.343471586704254,46.4411699474908
96965,-0.344093084335327,46.2675567550611
97072,-0.344507396221161,45.963738351276
97183,-0.344300240278244,45.963738351276
97292,-0.343264430761337,45.7901314028021
97399,-0.344300240278244,45.6165182103724
97509,-0.343471586704254,45.6165182103724
97622,-0.34388592839241,45.3561015437057
97729,-0.34388592839241,45.2258900883944
97838,-0.34305727481842,45.4429050179426
97945,-0.34388592839241,45.4863067550611
98054,-0.34243580698967,45.7467171777719
98166,-0.343264430761337,46.0071338444386
98275,-0.343678742647171,46.0071338444386
98384,-0.34388592839241,46.1807407929125
98491,-0.344093084335327,46.0505293376012
98600,-0.343471586704254,46.0505293376012
98711,-0.343471586704254,46.0505293376012
98821,-0.343678742647171,46.0939373186755
98930,-0.34388592839241,45.6599074595791
99037,-0.343264430761337,45.8335206520089
99146,-0.34305727481842,45.5297022482237
99261,-0.343471586704254,45.5731039853422
99367,-0.343264430761337,45.7033154406534
99476,-0.343678742647171,45.7901251588462
99583,-0.344507396221161,45.5297084921796
99692,-0.343471586704254,45.7467234217278
99804,-0.343471586704254,45.5731164732539
99916,-0.342850118875504,46.0071400883944
100022,-0.343471586704254,46.1373515437057
100129,-0.343264430761337,46.1807532808242
100238,-0.34305727481842,46.4845716846093
100348,-0.342021465301514,46.8317918255129
100457,-0.343678742647171,46.8751998065872
100568,-0.343471586704254,46.8751998065872
100675,-0.342642962932587,47.3960268959647
100784,-0.34388592839241,47.3960268959647
100898,-0.343471586704254,47.4394286330832
101004,-0.34305727481842,47.5262321073201
101116,-0.344093084335327,47.3960206520089
101221,-0.344507396221161,46.918589055794
101330,-0.343678742647171,46.918589055794
101444,-0.34388592839241,46.8751810747197
101551,-0.343264430761337,47.0487942671494
101663,-0.344093084335327,46.9185828118381
101767,-0.344714552164078,46.614764408053
101876,-0.34305727481842,47.0053862860751
101990,-0.34388592839241,47.1355914974305
102097,-0.343264430761337,46.9619845489566
102204,-0.344093084335327,46.7449696194084
102316,-0.34305727481842,46.9185828118381
102422,-0.342850118875504,46.8317793376012
102534,-0.34243580698967,47.0487880231936
102643,-0.343471586704254,46.8751810747197
102752,-0.34388592839241,46.7449696194084
102861,-0.344921708106995,46.4845529527418
102968,-0.344300240278244,46.2675380231936
103080,-0.343264430761337,46.4845529527418
103189,-0.343678742647171,46.6581661451715
103298,-0.343264430761337,46.7449696194084
103407,-0.344300240278244,46.3977494785048
103516,-0.34305727481842,46.6581661451715
103628,-0.343471586704254,46.7449758633643
103732,-0.344093084335327,46.614764408053
103844,-0.342642962932587,46.8751810747197
103950,-0.344300240278244,46.614764408053
104061,-0.344507396221161,46.4845591966976
104172,-0.344093084335327,46.137339055794
104280,-0.344300240278244,45.8769223891273
104390,-0.343471586704254,45.7901189148904
104496,-0.34305727481842,45.9203241262458
104607,-0.343678742647171,45.9203241262458
104719,-0.344093084335327,45.7467109338161
104826,-0.343678742647171,45.6165057224607
104937,-0.344507396221161,45.3126873186755
105043,-0.344507396221161,45.1824821073201
105153,-0.344507396221161,45.0522768959647
105267,-0.343264430761337,45.182488351276
105373,-0.34388592839241,45.3560952997498
105483,-0.343471586704254,45.6165119664165
105589,-0.342850118875504,46.0071338444386
105699,-0.343471586704254,46.0939435626314
105812,-0.343264430761337,46.2675567550611
105919,-0.344300240278244,46.0939435626314
106029,-0.343471586704254,45.963738351276
106135,-0.344093084335327,46.0071400883944
106245,-0.344714552164078,45.8335331399206
106355,-0.343264430761337,46.0071463323503
106466,-0.343678742647171,46.267562999017
106575,-0.343471586704254,46.3977744543282
106681,-0.343471586704254,46.3977744543282
106791,-0.344093084335327,46.3543727172097
106903,-0.342228621244431,46.6581911209949
107012,-0.344507396221161,46.3109709800913
107121,-0.343678742647171,46.3109709800913
107227,-0.343678742647171,45.9637508391877
107337,-0.34388592839241,46.18075952478
107449,-0.344300240278244,46.1373577876615
107558,-0.34388592839241,46.0505480694688
107667,-0.344714552164078,45.7901314028021
107773,-0.344507396221161,45.6599261914467
107882,-0.343471586704254,45.7901376467579
107992,-0.343264430761337,46.0071525763061
108103,-0.343471586704254,45.7901438907138
108212,-0.344507396221161,45.6599386793584
108319,-0.344093084335327,45.3127185384548
108428,-0.343678742647171,45.3561265195291
108542,-0.34388592839241,45.2693168013363
108649,-0.344507396221161,45.0523018717881
108759,-0.345336049795151,44.5748702755732
108867,-0.344093084335327,44.444658820262
108974,-0.343264430761337,44.4012570831435
109085,-0.343471586704254,44.357855346025
109195,-0.34388592839241,44.2276438907138
109304,-0.34305727481842,44.2276438907138
109412,-0.344093084335327,44.2710456278323
109520,-0.343264430761337,44.5314622944989
109630,-0.344300240278244,44.4012508391877
109741,-0.34388592839241,44.2276376467579
109850,-0.343264430761337,44.1842359096395
109957,-0.344921708106995,43.9238192429728
110068,-0.34388592839241,43.8804112618985
110180,-0.342850118875504,43.9672147361354
110285,-0.343678742647171,43.923812999017
110396,-0.34305727481842,44.0540182103724
110503,-0.34305727481842,44.0540182103724
110614,-0.344093084335327,44.0106164732539
110724,-0.34388592839241,43.9238067550611
110831,-0.343471586704254,43.9238067550611
110942,-0.343471586704254,44.0540182103724
111049,-0.343471586704254,44.2710331399206
111160,-0.34305727481842,44.5314498065872
111272,-0.343471586704254,44.4880480694688
111379,-0.343264430761337,44.705062999017
111488,-0.344093084335327,44.5748515437057
111595,-0.344300240278244,44.4880480694688
111704,-0.344714552164078,44.3144411209949
111819,-0.34305727481842,44.3144411209949
111925,-0.342642962932587,44.5748577876615
112034,-0.343471586704254,44.3578491020692
112141,-0.344507396221161,44.0974324354025
112250,-0.343678742647171,44.0974324354025
112364,-0.34388592839241,44.0974324354025
112471,-0.344300240278244,44.0540306982841
112580,-0.343678742647171,44.0106289611656
112689,-0.34305727481842,44.0974324354025
112796,-0.344507396221161,43.9238192429728
112910,-0.342850118875504,44.140834172521
113019,-0.34305727481842,44.1842359096395
113125,-0.34305727481842,44.1842359096395
113233,-0.343678742647171,44.140834172521
113342,-0.34388592839241,44.0106227172097
113454,-0.344507396221161,43.83700952478
113564,-0.344093084335327,43.923812999017
113672,-0.343678742647171,43.8804112618985
113779,-0.344093084335327,43.7501998065872
113888,-0.342850118875504,43.7501998065872
114000,-0.34388592839241,43.6633900883944
114110,-0.34388592839241,43.5331786330832
114220,-0.343471586704254,43.4463751588462
114325,-0.344093084335327,43.0123452997498
114434,-0.342850118875504,43.1859522482237
114545,-0.343678742647171,43.1425505111052
114655,-0.343678742647171,42.9255418255129
114764,-0.344093084335327,42.8821400883944
114871,-0.343264430761337,42.9255418255129
114980,-0.343264430761337,42.8821400883944
115092,-0.344093084335327,42.8821400883944
115201,-0.344714552164078,42.838738351276
115310,-0.34388592839241,42.7953303702016
115418,-0.34388592839241,42.7953303702016
115526,-0.343264430761337,42.7953303702016
115636,-0.343678742647171,42.8821400883944
115747,-0.342850118875504,43.2727619664165
115856,-0.34388592839241,43.0991487739868
115964,-0.342642962932587,43.3595654406534
116072,-0.342850118875504,43.4463689148904
116186,-0.343678742647171,43.5331786330832
116293,-0.344093084335327,43.316163703535
116402,-0.343678742647171,43.1425567550611
116510,-0.344507396221161,42.7085331399206
116618,-0.343678742647171,42.6651314028021
116730,-0.344507396221161,42.5349261914467
116839,-0.343678742647171,42.7953428581133
116948,-0.343264430761337,43.0123577876615
117055,-0.342850118875504,43.0991612618985
117165,-0.344093084335327,43.0123515437057
117274,-0.34305727481842,43.0557532808242
117385,-0.344300240278244,43.0557532808242
117494,-0.342642962932587,43.1425567550611
117601,-0.343678742647171,43.0991550179426
117710,-0.34388592839241,43.1425567550611
117823,-0.343471586704254,42.9689498065872
117928,-0.34388592839241,43.0557532808242
118040,-0.343264430761337,43.3161699474908
118147,-0.343678742647171,43.4029796656836
118256,-0.343264430761337,43.6199945952318
118369,-0.34388592839241,43.533184877039
118477,-0.344507396221161,43.2293664732539
118586,-0.34388592839241,43.1859584921796
118693,-0.343264430761337,43.3595716846093
118802,-0.343678742647171,43.3595716846093
118914,-0.344093084335327,43.4463751588462
119023,-0.344093084335327,43.5331786330832
119132,-0.343678742647171,43.7067918255129
119239,-0.34305727481842,43.7501935626314
119348,-0.34388592839241,43.7501935626314
119462,-0.342642962932587,43.9238005111052
119569,-0.343264430761337,43.8369970368683
119678,-0.343264430761337,43.8803987739868
119785,-0.34305727481842,43.9238005111052
119894,-0.343471586704254,44.097413703535
120005,-0.344507396221161,43.8803987739868
120118,-0.344093084335327,43.8803987739868
120224,-0.34388592839241,44.0540057224607
120331,-0.343471586704254,44.0106039853422
120440,-0.343264430761337,44.0974074595791
120550,-0.342850118875504,44.2276126709345
120662,-0.343678742647171,44.1842109338161
120770,-0.344714552164078,44.0540057224607
120877,-0.343471586704254,43.793589055794
120986,-0.343678742647171,43.9672022482237
121100,-0.344507396221161,43.793589055794
121205,-0.343471586704254,43.8369907929125
121318,-0.344093084335327,43.793589055794
121423,-0.34388592839241,43.8803925300309
121532,-0.344093084335327,43.8369907929125
121644,-0.343264430761337,44.1408091966976
121753,-0.34388592839241,44.271014408053
121862,-0.34388592839241,44.1842046898602
121969,-0.342850118875504,44.2710081640972
122078,-0.342642962932587,44.444615112571
122192,-0.344300240278244,44.4880168496895
122299,-0.34388592839241,44.531418586808
122406,-0.344093084335327,44.4446088686152
122520,-0.343678742647171,44.4880168496895
122625,-0.342850118875504,44.8352369905931
122739,-0.344714552164078,44.9654484459044
122846,-0.344093084335327,44.9654484459044
122955,-0.342228621244431,45.1824633754526
123063,-0.344507396221161,44.9654484459044
123171,-0.343678742647171,45.0088564269787
123283,-0.343678742647171,44.8786512156233
123391,-0.343471586704254,45.0088626709345
123501,-0.34243580698967,45.1824696194084
123607,-0.344300240278244,45.1824696194084
123718,-0.34388592839241,45.1824696194084
123831,-0.343471586704254,45.1390678822899
123937,-0.343264430761337,45.4862880231936
124046,-0.344300240278244,45.3994845489566
124153,-0.34388592839241,45.1824696194084
124263,-0.343264430761337,45.2692730936454
124375,-0.34243580698967,45.3994783050008
124483,-0.34305727481842,45.3994783050008
124593,-0.34388592839241,45.4428800421192
124699,-0.344093084335327,45.3994783050008
124811,-0.344714552164078,45.1390616383341
124921,-0.344300240278244,44.9654484459044
125027,-0.343471586704254,44.9654484459044
125139,-0.344507396221161,44.6616300421192
125245,-0.343678742647171,44.6182283050008
125355,-0.344093084335327,44.444615112571
125470,-0.343264430761337,44.6182283050008
125575,-0.34305727481842,44.8786449716674
125685,-0.342642962932587,45.312668586808
125791,-0.343471586704254,45.225865112571
125901,-0.344921708106995,44.748439760312
126013,-0.343678742647171,44.7050380231936
126121,-0.342642962932587,45.0956599012156
126231,-0.344093084335327,45.0088501830228
126337,-0.343264430761337,45.1390616383341
126447,-0.344507396221161,45.0956599012156
126557,-0.344093084335327,45.0088501830228
126670,-0.34305727481842,45.0088501830228
126777,-0.344093084335327,45.0956536572598
126883,-0.343471586704254,44.9654484459044
126993,-0.343264430761337,44.9220467087859
127104,-0.343678742647171,44.7918414974305
127214,-0.342850118875504,44.9654484459044
127323,-0.343678742647171,45.0088564269787
127429,-0.344093084335327,45.0956599012156
127543,-0.344093084335327,45.0956599012156
127650,-0.343264430761337,45.1824633754526
127761,-0.343264430761337,45.3560765678823
127870,-0.343678742647171,45.1824696194084
127975,-0.343264430761337,45.3126810747197
128085,-0.343471586704254,45.3994907929125
128196,-0.342850118875504,45.5296960042679
128305,-0.343471586704254,45.6599074595791
128413,-0.343471586704254,45.5297022482237
128521,-0.343264430761337,45.6165057224607
128630,-0.344300240278244,45.4862942671494
128742,-0.343264430761337,45.6599074595791
128851,-0.342642962932587,45.7901126709345
128958,-0.343678742647171,45.7033091966976
129070,-0.343471586704254,45.8335206520089
129181,-0.344300240278244,45.9203241262458
129288,-0.34388592839241,45.9203241262458
129397,-0.34305727481842,46.0939373186755
129504,-0.343264430761337,46.0939373186755
129613,-0.345128864049912,45.7901189148904
129725,-0.343678742647171,45.6165119664165
129834,-0.344093084335327,45.573110229298
129943,-0.343264430761337,45.4429050179426
130050,-0.34243580698967,45.5297084921796
130161,-0.344507396221161,45.3560952997498
130273,-0.344093084335327,45.3560952997498
130380,-0.344714552164078,45.1390803702016
130489,-0.344093084335327,45.2258838444386
130596,-0.343471586704254,45.2692855815571
130705,-0.342850118875504,45.6165057224607
130820,-0.342850118875504,45.7901126709345
130925,-0.344300240278244,45.5730977413863
131035,-0.34388592839241,45.3560828118381
131142,-0.344093084335327,45.3560828118381
131251,-0.343471586704254,45.2692793376012
131363,-0.343471586704254,45.4428925300309
131472,-0.343471586704254,45.2692855815571
131581,-0.344093084335327,45.1824758633643
131688,-0.343264430761337,45.3126873186755
131797,-0.34388592839241,45.2258776004827
131913,-0.343471586704254,45.3126873186755
132020,-0.343471586704254,45.2692855815571
132125,-0.34388592839241,45.2258776004827
132234,-0.344507396221161,44.9654609338161
132343,-0.342850118875504,45.1824758633643
132455,-0.343471586704254,45.3994907929125
132565,-0.34305727481842,45.5731039853422
132673,-0.342642962932587,45.7033091966976
132780,-0.343264430761337,45.7901126709345
132889,-0.344093084335327,45.7901126709345
133001,-0.343264430761337,45.9637258633643
133111,-0.344921708106995,45.7033091966976
133220,-0.343264430761337,45.6599074595791
133326,-0.343678742647171,45.7033154406534
133435,-0.343678742647171,45.4863067550611
133549,-0.343678742647171,45.3995032808242
133656,-0.343471586704254,45.3561015437057
133770,-0.342642962932587,45.4429050179426
133872,-0.343264430761337,45.4863067550611
133981,-0.343678742647171,45.6599199474908
134093,-0.34305727481842,45.876934877039
134202,-0.34305727481842,46.0505480694688
134313,-0.343471586704254,46.0505480694688
134419,-0.344507396221161,45.7901314028021
134527,-0.344714552164078,45.39950952478
134639,-0.344714552164078,45.1824945952318
134748,-0.343471586704254,45.4429112618985
134857,-0.343678742647171,45.39950952478
134965,-0.34388592839241,45.3561015437057
135073,-0.344714552164078,45.3126998065872
135185,-0.343678742647171,45.2692980694688
135294,-0.34388592839241,45.3126998065872
135403,-0.343264430761337,45.4429112618985
135511,-0.343678742647171,45.5297209800913
135619,-0.344507396221161,45.2693043134246
135731,-0.344300240278244,45.1825008391877
135840,-0.343264430761337,45.3127122944989
135949,-0.343264430761337,45.225908820262
136056,-0.343678742647171,45.0089001346696
136166,-0.34388592839241,45.0957036089066
136275,-0.344093084335327,45.0523018717881
136386,-0.34388592839241,45.0957036089066
136495,-0.343471586704254,45.139105346025
136602,-0.343471586704254,45.0089001346696
136713,-0.343264430761337,45.3127185384548
136823,-0.344300240278244,45.2693168013363
136932,-0.343471586704254,45.0089001346696
137041,-0.34388592839241,45.139105346025
137148,-0.345543205738068,44.7484772240471
137257,-0.344507396221161,44.5748640316174
137370,-0.34243580698967,44.7918727172097
137478,-0.342228621244431,44.8352806982841
137587,-0.34305727481842,45.0956973649507
137694,-0.344093084335327,45.0522956278323
137803,-0.34388592839241,44.9654859096395
137915,-0.344093084335327,44.7918727172097
138024,-0.343678742647171,44.922084172521
138133,-0.343264430761337,45.0522956278323
138240,-0.343678742647171,44.9654921535953
138349,-0.343678742647171,44.7050817308845
138463,-0.343264430761337,44.661679993766
138570,-0.344093084335327,44.6182782566476
138676,-0.34388592839241,44.661679993766
138786,-0.343264430761337,44.9654983975512
138895,-0.344093084335327,45.0089001346696
139005,-0.34305727481842,45.0957036089066
139120,-0.342642962932587,45.4863254869286
139223,-0.34305727481842,45.6165306982841
139331,-0.342850118875504,45.8769473649507
139441,-0.343471586704254,45.8335456278323
139552,-0.34388592839241,45.6599324354025
139663,-0.343264430761337,45.5297272240471
139771,-0.342642962932587,45.703334172521
139878,-0.342642962932587,46.18075952478
139988,-0.344300240278244,46.0505480694688
140102,-0.343678742647171,45.8335393838764
140206,-0.344093084335327,45.8335393838764
140320,-0.343471586704254,45.7901376467579
140424,-0.34305727481842,46.0939560505431
140534,-0.343678742647171,46.1807657687359
140646,-0.344300240278244,45.9203491020692
140754,-0.343471586704254,46.0505605573805
140866,-0.34243580698967,46.2675692429728
140971,-0.344300240278244,46.0505543134246
141080,-0.343678742647171,46.0505543134246
141189,-0.344300240278244,45.7467359096395
141300,-0.344093084335327,45.6599261914467
141412,-0.343264430761337,45.8335393838764
141521,-0.345128864049912,45.6165306982841
141626,-0.343264430761337,45.6165306982841
141740,-0.342228621244431,45.8335456278323
141846,-0.344300240278244,45.703334172521
141956,-0.34305727481842,45.7467359096395
142064,-0.344300240278244,45.5731227172097
142172,-0.343471586704254,45.4429175058543
142284,-0.34388592839241,45.3561077876615
142392,-0.343678742647171,45.3127060505431
142502,-0.34305727481842,45.3561077876615
142608,-0.342850118875504,45.6599261914467
142721,-0.34305727481842,45.7033279285652
142832,-0.343264430761337,45.5731227172097
142938,-0.343471586704254,45.6165244543282
143046,-0.343471586704254,45.6165244543282
143154,-0.343471586704254,45.7901376467579
143264,-0.344300240278244,45.703334172521
143375,-0.343678742647171,45.5731289611656
143484,-0.34388592839241,45.4429175058543
143593,-0.344093084335327,45.6599261914467
143700,-0.344507396221161,45.486312999017
143812,-0.343471586704254,45.6165244543282
143921,-0.344507396221161,45.3561077876615
144030,-0.343678742647171,45.0956973649507
144139,-0.343471586704254,45.3127122944989
144246,-0.344093084335327,45.3127122944989
144355,-0.34388592839241,45.4863192429728
144471,-0.34305727481842,45.703334172521
144576,-0.344507396221161,45.4863192429728
144685,-0.343471586704254,45.3561140316174
144792,-0.343471586704254,45.225908820262
144901,-0.343678742647171,45.3561202755732
145014,-0.344300240278244,45.2693168013363
145122,-0.343471586704254,45.3995282566476
145231,-0.34305727481842,45.4863317308845
145338,-0.34305727481842,45.5731352051214
145447,-0.343264430761337,45.6165369422399
145559,-0.34388592839241,45.6599386793584
145671,-0.344714552164078,45.3561202755732
145777,-0.34388592839241,45.3561202755732
145884,-0.34388592839241,45.2693105573805
145993,-0.34388592839241,45.1825008391877
146107,-0.343264430761337,45.3127122944989
146214,-0.344093084335327,45.3995157687359
146321,-0.34388592839241,45.1825008391877
146430,-0.344300240278244,45.0088876467579
146539,-0.342850118875504,45.0522893838764
146651,-0.342021465301514,45.1825008391877
146761,-0.343264430761337,45.1825008391877
146870,-0.344921708106995,45.0088938907138
146976,-0.34388592839241,44.8786824354025
147085,-0.343264430761337,45.2259025763061
147195,-0.342850118875504,45.3127060505431
147306,-0.343264430761337,45.39950952478
147416,-0.34388592839241,45.3561015437057
147522,-0.34388592839241,45.3126935626314
147631,-0.342850118875504,45.4428987739868
147743,-0.343264430761337,45.3126935626314
147852,-0.343678742647171,45.2258900883944
147962,-0.342850118875504,45.3994970368683
148071,-0.34388592839241,45.2258838444386
148177,-0.34388592839241,45.0522706520089
148289,-0.345128864049912,44.7050505111052
148398,-0.344300240278244,44.7484522482237
148507,-0.343678742647171,44.9654671777719
148616,-0.344093084335327,45.0956723891273
148723,-0.344093084335327,44.9654609338161
148833,-0.34305727481842,45.0956661451715
148944,-0.342850118875504,45.3126810747197
149053,-0.344300240278244,45.3994845489566
149162,-0.34388592839241,45.3560765678823
149270,-0.343678742647171,45.3994845489566
149381,-0.343264430761337,45.3994845489566
149490,-0.344714552164078,45.1824696194084
149599,-0.343264430761337,45.4428862860751
149706,-0.34305727481842,45.7033029527418
149816,-0.342850118875504,45.7901064269787
149925,-0.34388592839241,45.6598949716674
150036,-0.344300240278244,45.5296835163562
150145,-0.343678742647171,45.5730914974305
150252,-0.343264430761337,45.7467046898602
150362,-0.343678742647171,45.7901126709345
150471,-0.343471586704254,45.7901126709345
150582,-0.343471586704254,45.7901126709345
150691,-0.343471586704254,45.7467109338161
150798,-0.343471586704254,45.9203241262458
150907,-0.342850118875504,46.0505293376012
151021,-0.343264430761337,46.1807407929125
151125,-0.343678742647171,46.5713689148904
151237,-0.34388592839241,46.7015741262458
151344,-0.342850118875504,46.6147706520089
151453,-0.34305727481842,46.4411574595791
151566,-0.344093084335327,46.2241425300309
151674,-0.344507396221161,46.137339055794
151783,-0.34388592839241,46.137339055794
151890,-0.344507396221161,46.0505355815571
151999,-0.344714552164078,45.8335206520089
152109,-0.343678742647171,45.7467171777719
152221,-0.34388592839241,45.7033091966976
152329,-0.343264430761337,45.7901126709345
152436,-0.34388592839241,45.6599012156233
152545,-0.34388592839241,45.7033029527418
152659,-0.342642962932587,45.9637196194084
152764,-0.342850118875504,46.0505230936454
152875,-0.344093084335327,46.0505230936454
152982,-0.34388592839241,45.8769099012156
153093,-0.342642962932587,45.8769099012156
153203,-0.34388592839241,45.7032967087859
153314,-0.343264430761337,45.616493234549
153421,-0.342642962932587,45.7901001830228
153528,-0.342850118875504,46.007115112571
153637,-0.343264430761337,46.007115112571
153751,-0.343678742647171,45.7901064269787
153858,-0.343264430761337,45.6599012156233
153966,-0.343678742647171,45.7901126709345
154074,-0.344300240278244,45.6599012156233
154183,-0.344300240278244,45.6164994785048
154295,-0.343678742647171,45.5730977413863
154404,-0.344300240278244,45.3126810747197
154514,-0.344300240278244,45.1824696194084
154621,-0.344300240278244,45.1824696194084
154729,-0.344507396221161,44.9654546898602
154841,-0.34388592839241,44.6616362860751
154950,-0.342021465301514,45.1390678822899
155059,-0.34305727481842,45.2692730936454
155166,-0.343264430761337,45.4862880231936
155275,-0.344921708106995,45.3126810747197
155389,-0.343264430761337,45.3126810747197
155496,-0.344300240278244,45.4862880231936
155605,-0.342850118875504,45.5730914974305
155714,-0.34388592839241,45.225865112571
155821,-0.343471586704254,45.3994783050008
155933,-0.343264430761337,45.3560765678823
156042,-0.343264430761337,45.5730914974305
156151,-0.344714552164078,45.3126748307638
156258,-0.343264430761337,45.4428862860751
156371,-0.344300240278244,45.3126748307638
156479,-0.343264430761337,45.2692730936454
156588,-0.344300240278244,44.9654546898602
156697,-0.343471586704254,44.8786512156233
156806,-0.344921708106995,44.5314310747197
156914,-0.344093084335327,44.4012196194084
157027,-0.343471586704254,44.4012196194084
157134,-0.343264430761337,44.4446213565269
157243,-0.343471586704254,44.6182345489566
157351,-0.34305727481842,44.748439760312
157460,-0.34305727481842,44.9220529527418
157572,-0.343678742647171,45.0088626709345
157681,-0.34305727481842,45.3126810747197
157790,-0.344714552164078,45.052264408053
157897,-0.34305727481842,45.3560828118381
158006,-0.342228621244431,45.6599012156233
158117,-0.34243580698967,45.8769099012156
158227,-0.342642962932587,46.1807283050008
158336,-0.342850118875504,46.397743234549
158443,-0.34388592839241,46.2241300421192
158552,-0.344300240278244,46.2675317792377
158665,-0.343264430761337,46.3109335163562
158773,-0.343264430761337,46.3543352534746
158879,-0.343678742647171,46.3543352534746
158988,-0.34388592839241,46.4411387277116
159102,-0.34388592839241,46.3543290095188
159209,-0.34243580698967,46.4845342208742
159322,-0.34305727481842,46.4845342208742
159425,-0.344300240278244,46.267519291326
159534,-0.34388592839241,46.267519291326
159646,-0.34388592839241,46.4411262397999
159756,-0.343471586704254,46.5279359579927
159865,-0.34388592839241,46.5279359579927
159971,-0.344300240278244,46.4411324837557
160080,-0.343264430761337,46.4411324837557
160190,-0.343678742647171,46.5279422019485
160301,-0.342850118875504,46.7449571314967
160410,-0.34388592839241,46.8317606057336
160518,-0.343264430761337,46.7449571314967
160626,-0.34305727481842,46.5279422019485
160740,-0.344093084335327,46.3543290095188
160846,-0.344093084335327,46.5279359579927
160956,-0.343678742647171,46.571343939067
161065,-0.343264430761337,46.571343939067
161172,-0.342850118875504,46.571343939067
161284,-0.343471586704254,46.5279422019485
161393,-0.34388592839241,46.5279422019485
161502,-0.343264430761337,46.6581536572598
161609,-0.342228621244431,46.788365112571
161722,-0.343471586704254,46.7449633754526
161832,-0.342021465301514,47.0921835163562
161939,-0.344507396221161,46.7449633754526
162046,-0.343471586704254,46.8317730936454
162155,-0.343678742647171,46.8751810747197
162264,-0.344093084335327,47.092189760312
162378,-0.34305727481842,47.3526064269787
162485,-0.344507396221161,47.178993234549
162594,-0.343678742647171,47.2658029527418
162701,-0.344300240278244,47.2224012156233
162810,-0.343678742647171,47.0921960042679
162922,-0.343471586704254,46.9619907929125
163031,-0.34305727481842,47.2224074595791
163140,-0.344507396221161,47.0922022482237
163247,-0.343471586704254,47.1356039853422
163356,-0.343471586704254,47.0922022482237
163472,-0.343678742647171,47.3092171777719
163577,-0.343264430761337,47.3092171777719
163685,-0.34388592839241,47.1356039853422
163793,-0.343678742647171,46.9619970368683
163902,-0.344507396221161,46.8317918255129
164015,-0.34305727481842,47.0922084921796
164125,-0.34388592839241,47.0488005111052
164232,-0.344093084335327,46.8751873186755
164339,-0.34243580698967,47.1355977413863
164448,-0.344507396221161,46.9185828118381
164560,-0.343678742647171,46.8751810747197
164672,-0.341814309358597,47.2224012156233
164778,-0.344300240278244,47.0487880231936
164885,-0.34388592839241,46.8317730936454
164994,-0.343471586704254,46.7883713565269
165108,-0.344507396221161,46.6147581640972
165217,-0.343471586704254,46.7015678822899
165324,-0.343264430761337,46.614764408053
165431,-0.343471586704254,46.5279609338161
165540,-0.34305727481842,46.7449758633643
165652,-0.344093084335327,46.8317793376012
165763,-0.343678742647171,46.8751873186755
165871,-0.342642962932587,47.2658091966976
165977,-0.343264430761337,47.5696276004827
166086,-0.34243580698967,47.8300380231936
166196,-0.343471586704254,47.9168477413863
166307,-0.344093084335327,47.7432345489566
166417,-0.343471586704254,47.8300442671494
166523,-0.342642962932587,48.0904609338161
166632,-0.344300240278244,47.7432407929125
166746,-0.344300240278244,47.4394223891273
166850,-0.34388592839241,47.4828241262458
166963,-0.343264430761337,47.6130355815571
167071,-0.344300240278244,47.2658154406534
167178,-0.343264430761337,47.3960268959647
167290,-0.344507396221161,47.135610229298
167399,-0.342850118875504,47.0922084921796
167508,-0.34388592839241,46.8751935626314
167615,-0.34305727481842,46.9185952997498
167724,-0.344300240278244,46.7883838444386
167834,-0.344714552164078,46.4845654406534
167945,-0.343471586704254,46.5279671777719
168054,-0.34388592839241,46.6147706520089
168163,-0.34305727481842,46.8751873186755
168272,-0.344507396221161,46.7015741262458
168383,-0.344300240278244,46.7015741262458
168491,-0.34388592839241,46.7883776004827
168600,-0.344093084335327,46.8317793376012
168707,-0.34305727481842,47.1355977413863
168817,-0.343678742647171,47.1790057224607
168925,-0.34243580698967,47.0921960042679
169037,-0.343471586704254,47.0053925300309
169146,-0.343678742647171,46.918589055794
169253,-0.343264430761337,47.2658091966976
169363,-0.343678742647171,47.1790057224607
169472,-0.343471586704254,47.3526189148904
169583,-0.34388592839241,47.1356039853422
169692,-0.343678742647171,47.1790119664165
169799,-0.343264430761337,47.222413703535
169908,-0.343678742647171,47.135610229298
170022,-0.34388592839241,47.0053987739868
170129,-0.342850118875504,47.3960206520089
170238,-0.34388592839241,47.2658091966976
170345,-0.343678742647171,47.3960206520089
170454,-0.344300240278244,47.1790057224607
170567,-0.34305727481842,47.4394223891273
170675,-0.344300240278244,47.2658091966976
170784,-0.34388592839241,47.4828178822899
170891,-0.34305727481842,47.6998328118381
171000,-0.344093084335327,47.5696213565269
171110,-0.343678742647171,47.4828178822899
171221,-0.343264430761337,47.5262196194084
171330,-0.344714552164078,47.1789994785048
171439,-0.34388592839241,47.0053862860751
171546,-0.343678742647171,47.0053862860751
171663,-0.343471586704254,46.9185828118381
171765,-0.342642962932587,47.3526064269787
171876,-0.343678742647171,47.2224012156233
171983,-0.343678742647171,46.9185828118381
172092,-0.34388592839241,46.614764408053
172204,-0.343471586704254,46.4411574595791
172315,-0.343264430761337,46.3543539853422
172422,-0.344714552164078,46.1807470368683
172529,-0.344300240278244,46.1807470368683
172638,-0.34388592839241,46.0505355815571
172752,-0.343264430761337,46.0505355815571
172859,-0.343471586704254,46.0939373186755
172967,-0.343264430761337,46.2241487739868
173075,-0.343471586704254,46.3109584921796
173184,-0.343264430761337,46.1373515437057
173298,-0.343264430761337,46.0939498065872
173405,-0.343471586704254,46.267562999017
173515,-0.342850118875504,46.4845779285652
173621,-0.343471586704254,46.5713876467579
173730,-0.343678742647171,46.5279859096395
173842,-0.343471586704254,46.6147956278323
173951,-0.34388592839241,46.7015991020692
174060,-0.343264430761337,46.7015991020692
174168,-0.343264430761337,46.7884025763061
174276,-0.34388592839241,46.5713876467579
174390,-0.343471586704254,46.6581973649507
174497,-0.343678742647171,46.5713938907138
174605,-0.343471586704254,46.4845904164768
174713,-0.34305727481842,46.701605346025
174822,-0.343471586704254,46.8318168013363
174935,-0.343678742647171,46.8318168013363
175043,-0.342850118875504,46.9186202755732
175153,-0.34388592839241,46.701605346025
175259,-0.343471586704254,46.701605346025
175372,-0.34388592839241,46.701605346025
175481,-0.34388592839241,46.5713938907138
175589,-0.343471586704254,46.3109772240471
175699,-0.343471586704254,46.3109772240471
175805,-0.344093084335327,45.8769473649507
175916,-0.344714552164078,45.8335456278323
176029,-0.344507396221161,45.6165306982841
176135,-0.342642962932587,45.8335393838764
176245,-0.344921708106995,45.6599324354025
176351,-0.343471586704254,45.5731289611656
176461,-0.34305727481842,45.8769473649507
176573,-0.34388592839241,45.8335393838764
176681,-0.342850118875504,46.1373577876615
176791,-0.342642962932587,46.3543664732539
176897,-0.344093084335327,46.2241550179426
177007,-0.344507396221161,45.9203366141575
177118,-0.343471586704254,46.1373515437057
177227,-0.342850118875504,46.2675567550611
177337,-0.343264430761337,46.3109584921796
177443,-0.343471586704254,46.354360229298
177553,-0.34305727481842,46.3977619664165
177664,-0.34388592839241,46.3977619664165
177773,-0.344714552164078,46.1807470368683
177883,-0.344093084335327,46.2675505111052
177989,-0.343264430761337,46.2241487739868
178099,-0.343471586704254,46.3109584921796
178211,-0.344714552164078,46.1807532808242
178323,-0.344093084335327,45.8335331399206
178429,-0.343678742647171,46.0071463323503
178535,-0.34305727481842,46.1373515437057
178644,-0.344507396221161,45.5731164732539
178754,-0.343471586704254,45.7467296656836
178866,-0.344300240278244,45.6599261914467
178975,-0.344714552164078,45.39950952478
179081,-0.344093084335327,45.486312999017
179190,-0.342850118875504,45.6165182103724
179304,-0.342850118875504,45.7033216846093
179411,-0.34388592839241,45.6165119664165
179524,-0.343264430761337,45.573110229298
179627,-0.343678742647171,45.6599199474908
179736,-0.34388592839241,45.6165119664165
179846,-0.344921708106995,45.1390866141575
179957,-0.342642962932587,45.2692918255129
180068,-0.344093084335327,44.9220716846093
180175,-0.343678742647171,44.8786699474908
180282,-0.34305727481842,45.095684877039
180392,-0.343264430761337,45.1390866141575
180503,-0.343264430761337,45.0088814028021
180612,-0.343678742647171,45.1390928581133
180720,-0.34305727481842,45.39950952478
180828,-0.34388592839241,45.39950952478
180939,-0.343678742647171,45.3127060505431
181049,-0.343678742647171,45.4429175058543
181158,-0.344921708106995,45.0956973649507
181266,-0.34305727481842,45.3995157687359
181375,-0.342642962932587,45.4429175058543
181486,-0.343678742647171,45.4863254869286
181595,-0.344300240278244,45.225908820262
181704,-0.343678742647171,45.3561202755732
181811,-0.343471586704254,45.6165369422399
181925,-0.342850118875504,45.7467421535953
182030,-0.345128864049912,45.4863317308845
182141,-0.343471586704254,45.3995282566476
182250,-0.344921708106995,45.3127247824106
182357,-0.343264430761337,45.5297397119588
182468,-0.343471586704254,45.6165494301516
182580,-0.34388592839241,45.6599511672701
182686,-0.343471586704254,45.5731476930331
182796,-0.34388592839241,45.5297397119588
182903,-0.344300240278244,45.1391178339368
183012,-0.34305727481842,45.2259213081737
183125,-0.344093084335327,45.1391115899809
183233,-0.343471586704254,45.0957098528624
183342,-0.344507396221161,44.9220966604327
183449,-0.34305727481842,45.0089001346696
183558,-0.34388592839241,45.0089001346696
183675,-0.343678742647171,45.0089001346696
183779,-0.343471586704254,44.9654983975512
183886,-0.344300240278244,44.8352869422399
183995,-0.344300240278244,44.748483468003
184104,-0.343471586704254,44.6182782566476
184220,-0.344093084335327,44.5748765195291
184326,-0.343678742647171,44.5748765195291
184434,-0.342850118875504,44.8786949233142
184541,-0.342642962932587,44.9654983975512
184650,-0.344093084335327,45.0089001346696
184762,-0.34388592839241,45.0089001346696
184874,-0.343471586704254,44.9220966604327
184980,-0.343678742647171,45.0089063786255
185087,-0.344093084335327,44.9220966604327
185196,-0.34305727481842,44.9654983975512
185310,-0.343471586704254,45.2259150642178
185418,-0.343471586704254,45.3127247824106
185526,-0.343471586704254,45.3561265195291
185633,-0.343471586704254,45.3561265195291
185742,-0.343678742647171,45.1391178339368
185854,-0.342642962932587,45.3561265195291
185963,-0.343264430761337,45.442929993766
186075,-0.34305727481842,45.6165431861958
186179,-0.34388592839241,45.529733468003
186288,-0.34388592839241,45.3995220126917
186400,-0.344300240278244,45.4863254869286
186509,-0.343678742647171,45.6165369422399
186621,-0.344507396221161,45.4863317308845
186725,-0.343678742647171,45.3995282566476
186834,-0.34305727481842,45.4863317308845
186948,-0.344300240278244,45.2693168013363
187055,-0.34388592839241,45.1825070831435
187166,-0.344507396221161,44.9220904164768
187275,-0.344714552164078,44.6182720126917
187380,-0.341814309358597,44.9654921535953
187492,-0.343678742647171,44.7918852051214
187601,-0.342642962932587,44.9654921535953
187710,-0.343678742647171,44.9654921535953
187818,-0.342850118875504,45.0956973649507
187926,-0.34243580698967,45.3995157687359
188036,-0.344093084335327,45.2259025763061
188147,-0.344921708106995,44.8786824354025
188256,-0.343471586704254,44.9654921535953
188363,-0.343264430761337,45.0088938907138
188474,-0.342850118875504,45.1825008391877
188584,-0.343471586704254,45.1825008391877
188693,-0.342850118875504,45.2259025763061
188802,-0.342850118875504,45.3561077876615
188909,-0.343471586704254,45.39950952478
189020,-0.34388592839241,45.1824945952318
189130,-0.344093084335327,45.1390928581133
189239,-0.34388592839241,45.0522831399206
189348,-0.343678742647171,45.0956911209949
189455,-0.344300240278244,45.0088876467579
189566,-0.344300240278244,44.8352744543282
189675,-0.344507396221161,44.61825952478
189785,-0.344300240278244,44.5748577876615
189894,-0.342228621244431,45.0956911209949
190001,-0.344093084335327,45.1824945952318
190111,-0.344507396221161,44.7918727172097
190225,-0.343264430761337,45.1390928581133
190331,-0.343471586704254,45.1390928581133
190437,-0.343678742647171,45.0088876467579
190547,-0.343264430761337,45.1390991020692
190661,-0.344093084335327,44.8786824354025
190768,-0.342850118875504,44.8352806982841
190877,-0.342642962932587,45.1390991020692
190983,-0.345128864049912,45.0088938907138
191093,-0.344300240278244,44.8352806982841
191205,-0.342642962932587,44.8786824354025
191313,-0.34388592839241,44.7484709800913
191425,-0.343264430761337,44.7918727172097
191529,-0.344714552164078,44.4446525763061
191639,-0.34243580698967,44.7484709800913
191753,-0.34243580698967,45.2258963323503
191859,-0.344507396221161,45.1390928581133
191968,-0.344093084335327,44.9654796656836
192076,-0.343264430761337,45.0088814028021
192185,-0.344093084335327,45.1390866141575
192299,-0.344093084335327,45.1390866141575
192406,-0.343678742647171,45.1390866141575
192517,-0.343678742647171,45.0088814028021
192626,-0.34305727481842,45.3126998065872
192732,-0.343471586704254,45.3126998065872
192844,-0.344921708106995,45.1824945952318
192952,-0.34388592839241,45.3561015437057
193062,-0.344714552164078,45.2258963323503
193169,-0.34388592839241,45.0088814028021
193279,-0.343678742647171,44.8352744543282
193392,-0.343264430761337,44.9654859096395
193498,-0.344300240278244,44.7484709800913
193607,-0.343471586704254,44.7918727172097
193714,-0.34243580698967,45.0956911209949
193825,-0.344300240278244,45.2258963323503
193936,-0.344300240278244,44.8786761914467
194044,-0.345543205738068,44.5748577876615
194154,-0.344093084335327,44.4880480694688
194260,-0.344093084335327,44.2710331399206
194369,-0.344300240278244,44.0540182103724
194481,-0.343264430761337,44.0540182103724
194590,-0.343678742647171,44.0540182103724
194699,-0.34388592839241,43.8804050179426
194806,-0.344507396221161,43.7501998065872
194917,-0.344093084335327,43.6633900883944
195026,-0.343678742647171,43.6633900883944
195136,-0.343264430761337,44.010610229298
195245,-0.34305727481842,44.010610229298
195352,-0.34243580698967,44.0540119664165
195461,-0.34305727481842,44.1842171777719
195577,-0.344093084335327,44.2276189148904
195682,-0.344093084335327,44.1408091966976
195791,-0.343678742647171,44.0974074595791
195898,-0.34305727481842,44.0540057224607
196007,-0.343471586704254,44.4012258633643
196117,-0.343678742647171,44.3578241262458
196228,-0.342850118875504,44.7918477413863
196337,-0.344300240278244,44.5748328118381
196444,-0.344300240278244,44.4012196194084
196553,-0.342850118875504,44.6182345489566
196667,-0.343471586704254,44.6182345489566
196775,-0.34305727481842,44.7918477413863
196883,-0.342642962932587,45.1390678822899
196990,-0.342850118875504,45.1824696194084
197099,-0.342228621244431,45.5730977413863
197211,-0.343264430761337,45.6164994785048
197321,-0.344300240278244,45.6599012156233
197429,-0.345128864049912,45.2258776004827
197536,-0.343471586704254,45.3126873186755
197645,-0.34388592839241,45.2692793376012
197755,-0.344093084335327,45.1390678822899
197867,-0.344921708106995,45.0088626709345
197975,-0.34243580698967,45.3994845489566
198082,-0.344921708106995,45.0956661451715
198191,-0.342850118875504,45.3560828118381
198304,-0.34388592839241,45.3126748307638
198412,-0.34388592839241,45.0956599012156
198521,-0.34305727481842,45.0088564269787
198628,-0.344300240278244,44.9654546898602
198737,-0.342850118875504,45.1824696194084
198846,-0.344300240278244,45.0088564269787
198958,-0.34388592839241,44.9654484459044
199067,-0.34305727481842,45.1824633754526
199176,-0.344714552164078,44.835243234549
199283,-0.344300240278244,44.6616300421192
199393,-0.343471586704254,44.6616300421192
199504,-0.343264430761337,44.7050317792377
199613,-0.343471586704254,44.7050317792377
199721,-0.34305727481842,44.8352369905931
199829,-0.343471586704254,44.6616300421192
199943,-0.343264430761337,44.6616300421192
200050,-0.344300240278244,44.4012133754526
200159,-0.344093084335327,44.3578116383341
200267,-0.343264430761337,44.4880230936454
200376,-0.34388592839241,44.5748265678823
200486,-0.344921708106995,44.3144099012156
200596,-0.344507396221161,44.3144099012156
200705,-0.34305727481842,44.444615112571
200812,-0.343471586704254,44.3578116383341
200921,-0.344093084335327,44.4012133754526
201031,-0.344714552164078,44.2276064269787
201142,-0.344093084335327,44.3144099012156
201251,-0.343678742647171,44.5314248307638
201358,-0.343471586704254,44.1842046898602
201467,-0.343471586704254,44.2276064269787
201581,-0.344093084335327,43.9237880231936
201686,-0.342642962932587,44.1407967087859
201797,-0.342850118875504,44.1407967087859
201904,-0.34305727481842,44.0105914974305
202013,-0.34388592839241,44.053993234549
202126,-0.34305727481842,44.444615112571
202234,-0.344300240278244,44.2710019201413
202343,-0.344507396221161,44.0105852534746
202450,-0.343471586704254,43.8803800421192
202559,-0.34305727481842,43.9671835163562
202676,-0.34388592839241,43.750168586808
202780,-0.344300240278244,43.4463501830228
202889,-0.344507396221161,43.2293352534746
202996,-0.343471586704254,43.3161449716674
203105,-0.342850118875504,43.5765616383341
203219,-0.34388592839241,43.5765616383341
203326,-0.342850118875504,43.750168586808
203435,-0.343264430761337,43.9671835163562
203542,-0.34388592839241,44.0539869905931
203651,-0.34388592839241,44.1841922019485
203763,-0.344507396221161,44.14079046483
203876,-0.343678742647171,43.8369720610449
203981,-0.344921708106995,43.663365112571
204088,-0.343471586704254,43.8803800421192
204197,-0.343264430761337,43.8803800421192
204311,-0.343678742647171,43.8369783050008
204419,-0.34388592839241,43.7935703239264
204526,-0.344093084335327,43.6199571314967
204634,-0.344507396221161,43.5331536572598
204743,-0.34243580698967,43.6199571314967
204855,-0.343264430761337,43.4897519201413
204964,-0.344093084335327,43.7067606057336
205076,-0.34243580698967,44.0973824837557
205180,-0.343264430761337,43.9671772724003
205289,-0.342850118875504,44.1841922019485
205401,-0.344300240278244,43.9671772724003
205510,-0.344300240278244,44.0539807466373
205621,-0.343264430761337,43.8803737981634
205726,-0.344300240278244,43.4897519201413
205835,-0.343264430761337,43.750168586808
205949,-0.343471586704254,43.8803800421192
206056,-0.344507396221161,43.6199633754526
206167,-0.344300240278244,43.5765616383341
206276,-0.343471586704254,43.7067730936454
206381,-0.34305727481842,43.8369783050008
206493,-0.343471586704254,43.8803800421192
206602,-0.342642962932587,43.9671835163562
206711,-0.342642962932587,44.14079046483
206819,-0.343471586704254,44.4446088686152
206927,-0.344507396221161,44.3144036572598
207037,-0.343678742647171,44.531418586808
207148,-0.343471586704254,44.6182283050008
207257,-0.343264430761337,44.7050317792377
207364,-0.34305727481842,44.7484335163562
207476,-0.34388592839241,44.8352369905931
207584,-0.344921708106995,44.531418586808
207694,-0.344093084335327,44.1841984459044
207803,-0.344093084335327,44.2276001830228
207910,-0.34243580698967,44.6182220610449
208019,-0.344507396221161,44.8352369905931
208131,-0.344093084335327,44.8352369905931
208240,-0.34388592839241,44.8786387277116
208349,-0.344093084335327,44.92204046483
208456,-0.34388592839241,44.7918290095188
208567,-0.344507396221161,44.6182158170891
208676,-0.344507396221161,44.4880106057336
208786,-0.343678742647171,44.6616237981634
208895,-0.343264430761337,44.8352369905931
209002,-0.344093084335327,44.7484272724003
209111,-0.343471586704254,44.7050255352818
209226,-0.344714552164078,44.3578053943782
209332,-0.344507396221161,43.9237817792377
209441,-0.344714552164078,43.5765616383341
209548,-0.344093084335327,43.5765616383341
209657,-0.344300240278244,43.5331599012156
209767,-0.343678742647171,43.5331599012156
209879,-0.343471586704254,43.4463564269787
209988,-0.34305727481842,43.5331599012156
210094,-0.343678742647171,43.5331599012156
210204,-0.344507396221161,43.185939760312
210314,-0.343678742647171,43.3161512156233
210428,-0.34388592839241,43.4029546898602
210534,-0.342850118875504,43.4029546898602
210640,-0.344714552164078,43.1425380231936
210750,-0.343471586704254,43.0557345489566
210864,-0.34305727481842,42.9689310747197
210972,-0.34388592839241,42.7519161451715
211080,-0.34305727481842,42.5783029527418
211186,-0.342642962932587,42.7085081640972
211296,-0.343471586704254,42.8821213565269
211407,-0.344714552164078,42.9689248307638
211518,-0.343678742647171,42.9255230936454
211627,-0.344093084335327,42.8821213565269
211732,-0.343471586704254,43.0123328118381
211842,-0.34305727481842,43.4029546898602
211952,-0.343471586704254,43.1859460042679
212062,-0.344093084335327,43.3595529527418
212173,-0.343678742647171,43.1859460042679
212280,-0.342850118875504,43.4029609338161
212388,-0.343471586704254,43.4897706520089
212502,-0.34305727481842,43.4897706520089
212607,-0.344093084335327,43.5331723891273
212718,-0.343264430761337,43.4463689148904
212825,-0.343264430761337,43.6633838444386
212934,-0.341814309358597,44.097413703535
213046,-0.34243580698967,44.2276189148904
213154,-0.343264430761337,44.5314373186755
213264,-0.34388592839241,44.6182407929125
213371,-0.343471586704254,44.6182407929125
213480,-0.343471586704254,44.574839055794
213594,-0.343678742647171,44.5314373186755
213700,-0.343678742647171,44.4012321073201
213807,-0.34243580698967,44.6182407929125
213916,-0.34305727481842,44.6616425300309
214025,-0.344714552164078,44.574839055794
214139,-0.344093084335327,44.574839055794
214246,-0.343471586704254,44.5314373186755
214355,-0.34388592839241,44.5314373186755
214462,-0.342850118875504,44.9654609338161
214571,-0.343678742647171,45.1390741262458
214683,-0.34305727481842,45.1390741262458
214792,-0.34388592839241,45.052264408053
214901,-0.34388592839241,45.0956661451715
215008,-0.342850118875504,45.4862880231936
215117,-0.343264430761337,45.6599012156233
215231,-0.34305727481842,45.7901064269787
215338,-0.343678742647171,45.7467046898602
215447,-0.343678742647171,45.7033029527418
215554,-0.343471586704254,45.833514408053
215663,-0.343471586704254,45.6599074595791
215775,-0.342642962932587,45.7033091966976
215884,-0.34388592839241,45.5296960042679
215993,-0.343678742647171,45.5731039853422
216100,-0.343471586704254,45.4863005111052
216209,-0.343678742647171,45.6165119664165
216323,-0.344093084335327,45.7033154406534
216430,-0.344714552164078,45.4428987739868
216539,-0.344714552164078,45.0956786330832
216646,-0.34388592839241,45.0956786330832
216755,-0.343471586704254,45.2692918255129
216871,-0.344300240278244,45.3126935626314
216981,-0.34305727481842,45.3994970368683
217085,-0.345128864049912,44.9220716846093
217192,-0.343264430761337,45.0522831399206
217301,-0.343264430761337,44.9654796656836
217413,-0.34305727481842,45.0088814028021
217523,-0.343264430761337,45.1390928581133
217631,-0.344714552164078,44.9654859096395
217738,-0.344507396221161,44.9654859096395
217847,-0.344093084335327,44.8786761914467
217957,-0.34388592839241,45.095684877039
218068,-0.343471586704254,45.095684877039
218180,-0.342850118875504,45.182488351276
218284,-0.342642962932587,45.3994970368683
218393,-0.34243580698967,45.7033154406534
218505,-0.343471586704254,45.8335268959647
218614,-0.343678742647171,46.0071400883944
218723,-0.343264430761337,45.8335331399206
218830,-0.344300240278244,45.6165182103724
218939,-0.344093084335327,45.6165182103724
219051,-0.342850118875504,45.5297147361354
219160,-0.34388592839241,45.3995032808242
219269,-0.34388592839241,45.182488351276
219377,-0.344300240278244,45.182488351276
219485,-0.343471586704254,45.3561015437057
219595,-0.344507396221161,45.095684877039
219706,-0.34388592839241,45.182488351276
219815,-0.34305727481842,45.2258900883944
219923,-0.344093084335327,45.0956786330832
220032,-0.344093084335327,45.1824821073201
220145,-0.34388592839241,45.2692855815571
220252,-0.34388592839241,45.1824758633643
220361,-0.343678742647171,45.0522706520089
220468,-0.343264430761337,45.0956723891273
220577,-0.344300240278244,44.7484522482237
220687,-0.342642962932587,44.7484522482237
220798,-0.342642962932587,44.9220591966976
220907,-0.344507396221161,44.9220591966976
221014,-0.344714552164078,44.7050442671494
221127,-0.344093084335327,44.5748328118381
221235,-0.344300240278244,44.3578178822899
221344,-0.344093084335327,44.1408029527418
221451,-0.344507396221161,44.0105977413863
221560,-0.341814309358597,44.6616362860751
221675,-0.34388592839241,44.7050380231936
221782,-0.343678742647171,44.7918477413863
221887,-0.343471586704254,44.574839055794
221997,-0.344714552164078,44.5314373186755
222106,-0.343678742647171,44.6182470368683
222220,-0.344507396221161,44.4880418255129
222327,-0.34388592839241,44.5314435626314
222436,-0.344300240278244,44.4446400883944
222543,-0.342642962932587,44.8352619664165
222652,-0.343264430761337,45.0956786330832
222764,-0.343678742647171,45.0956786330832
222875,-0.343678742647171,45.0088751588462
222982,-0.343471586704254,45.1390866141575
223089,-0.343264430761337,45.182488351276
223198,-0.342850118875504,45.573110229298
223312,-0.34388592839241,45.7033154406534
223419,-0.344300240278244,45.7901189148904
223527,-0.34388592839241,45.8335206520089
223635,-0.34388592839241,45.9203241262458
223744,-0.34305727481842,46.0505293376012
223856,-0.344507396221161,45.833514408053
223965,-0.343678742647171,45.7033091966976
224075,-0.343264430761337,45.7901126709345
224182,-0.344300240278244,45.833514408053
224290,-0.344507396221161,45.6599012156233
224399,-0.34388592839241,45.6599012156233
224511,-0.343471586704254,45.5296960042679
224620,-0.34388592839241,45.7033029527418
224727,-0.34388592839241,45.616493234549
224836,-0.344714552164078,45.2692730936454
224950,-0.34388592839241,45.2692730936454
225057,-0.342642962932587,45.3560765678823
225166,-0.344507396221161,44.9654546898602
225275,-0.344714552164078,44.7050380231936
225382,-0.342850118875504,45.0956599012156
225494,-0.343264430761337,45.1824633754526
225603,-0.34388592839241,45.225865112571
225712,-0.343471586704254,45.225865112571
225818,-0.343471586704254,45.1390616383341
225932,-0.343678742647171,45.0956599012156
226038,-0.343678742647171,45.1824696194084
226148,-0.34243580698967,45.4428800421192
226258,-0.342850118875504,45.4428800421192
226364,-0.343471586704254,45.4428800421192
226477,-0.34388592839241,45.2692668496895
226585,-0.34305727481842,45.4862817792377
226694,-0.344300240278244,45.2692668496895
226804,-0.344714552164078,44.9654484459044
226910,-0.344093084335327,44.4880168496895
227020,-0.34388592839241,44.1841984459044
227132,-0.343471586704254,44.1407967087859
227240,-0.343264430761337,44.2710081640972
227351,-0.344507396221161,44.053993234549
227457,-0.34388592839241,43.9671835163562
227567,-0.342850118875504,44.14079046483
227679,-0.34305727481842,44.2709956761855
227787,-0.34305727481842,44.14079046483
227897,-0.34305727481842,44.14079046483
228003,-0.343471586704254,44.4012071314967
228113,-0.344093084335327,44.4012071314967
228226,-0.34388592839241,44.3143974133039
228333,-0.34388592839241,44.3143974133039
228443,-0.343678742647171,44.14079046483
228549,-0.344093084335327,44.0539807466373
228659,-0.344093084335327,43.8369658170891
228768,-0.344093084335327,43.7935640799706
228882,-0.34305727481842,43.9671772724003
228989,-0.343678742647171,43.7935703239264
229095,-0.344093084335327,43.6199571314967
229205,-0.343264430761337,43.5765553943782
229315,-0.34388592839241,43.5331474133039
229426,-0.343264430761337,43.6199508875409
229535,-0.344093084335327,43.4897394322296
229641,-0.344714552164078,43.2293227655629
229750,-0.34388592839241,42.9689060988963
229864,-0.343678742647171,43.0123140799706
229971,-0.344921708106995,42.7518974133039
230082,-0.343471586704254,42.7518974133039
230187,-0.344093084335327,42.6650876951111
230296,-0.343678742647171,42.7518974133039
230408,-0.344093084335327,42.8821026246593
230517,-0.34388592839241,43.0557095731332
230628,-0.342642962932587,43.3161262397999
230735,-0.343471586704254,43.3161262397999
230842,-0.34305727481842,43.5765429064665
230952,-0.342850118875504,43.619944643585
231063,-0.344507396221161,43.7501498549404
231172,-0.344093084335327,43.5765366625107
231280,-0.34388592839241,43.4463252071994
231388,-0.345543205738068,42.9254918738661
231498,-0.344507396221161,42.6650752071994
231608,-0.344507396221161,42.7084769443179
231718,-0.344093084335327,42.7952804185548
231826,-0.34305727481842,43.012295348103
231935,-0.344300240278244,42.9254918738661
232046,-0.343678742647171,42.8820901367476
232155,-0.342850118875504,42.8820901367476
232264,-0.343471586704254,42.7084831882737
232371,-0.344093084335327,42.3612630473701
232485,-0.343471586704254,42.3612630473701
232594,-0.344507396221161,42.1876498549404
232701,-0.344300240278244,41.9706349253922
232808,-0.34388592839241,42.0574383996292
232917,-0.343678742647171,42.1442481178219
233028,-0.343471586704254,42.0140429064665
233140,-0.342850118875504,42.2310578360147
233247,-0.343678742647171,42.2744658170891
233356,-0.342850118875504,42.5782842208742
233463,-0.344714552164078,42.3178675542075
233572,-0.344093084335327,42.4046710284445
233684,-0.343678742647171,42.4480790095188
233793,-0.344093084335327,42.2310640799706
233902,-0.344093084335327,42.2310640799706
234009,-0.34388592839241,42.2744658170891
234118,-0.343678742647171,42.3178737981634
234234,-0.344921708106995,42.100865112571
234339,-0.34305727481842,42.2310703239264
234448,-0.344093084335327,42.0574571314967
234555,-0.344300240278244,42.0574571314967
234664,-0.342850118875504,42.0140553943782
234778,-0.344300240278244,41.6668352534746
234885,-0.342850118875504,42.0140553943782
234994,-0.343264430761337,42.3178737981634
235101,-0.34388592839241,42.3612755352818
235210,-0.344507396221161,42.3178737981634
235322,-0.34305727481842,42.5348887277116
235435,-0.34243580698967,42.9689123428521
235540,-0.344093084335327,42.4914807466373
235647,-0.342850118875504,42.7084956761855
235756,-0.343678742647171,42.7084956761855
235870,-0.342850118875504,42.8387008875409
235978,-0.344300240278244,42.9255043617778
236086,-0.343264430761337,43.0123078360147
236193,-0.342642962932587,43.4029297140368
236302,-0.344921708106995,43.1859210284445
236414,-0.343264430761337,43.4029359579927
236523,-0.344507396221161,43.0123140799706
236635,-0.343678742647171,42.9255106057336
236739,-0.343678742647171,42.9255106057336
236848,-0.344300240278244,42.7952991504224
236958,-0.34305727481842,42.8821026246593
237069,-0.343264430761337,42.8821026246593
237180,-0.342850118875504,42.8821026246593
237285,-0.343471586704254,42.9689123428521
237394,-0.343471586704254,43.1425255352818
237506,-0.34305727481842,43.3161387277116
237615,-0.34388592839241,43.3161387277116
237726,-0.344093084335327,43.0991237981634
237834,-0.342642962932587,43.4897456761855
237940,-0.34305727481842,43.6199508875409
238052,-0.345128864049912,43.2293290095188
238161,-0.343678742647171,43.35954046483
238270,-0.343264430761337,43.6199571314967
238378,-0.342850118875504,43.8369720610449
238486,-0.343678742647171,43.7935703239264
238595,-0.34388592839241,43.7935703239264
238707,-0.343678742647171,43.8369783050008
238816,-0.343264430761337,44.1407967087859
238923,-0.343264430761337,44.2710081640972
239035,-0.344921708106995,43.7935828118381
239146,-0.343678742647171,43.9671960042679
239253,-0.343678742647171,44.1842109338161
239362,-0.34305727481842,44.1408091966976
239469,-0.343678742647171,44.0540057224607
239578,-0.344093084335327,44.0106039853422
239688,-0.342850118875504,44.1408091966976
239799,-0.343678742647171,44.0974074595791
239908,-0.343471586704254,44.1408091966976
240015,-0.342850118875504,44.3144161451715
240126,-0.344714552164078,43.8369907929125
240235,-0.34388592839241,43.6199758633643
240345,-0.343471586704254,43.6199758633643
240454,-0.344093084335327,43.5765741262458
240561,-0.34305727481842,43.5765741262458
240670,-0.343678742647171,43.7067855815571
240784,-0.344714552164078,43.7067855815571
240889,-0.344714552164078,43.5765803702016
241000,-0.34388592839241,43.5765803702016
241107,-0.344093084335327,43.4463689148904
241216,-0.342642962932587,43.5765741262458
241330,-0.344300240278244,43.6199758633643
241437,-0.344507396221161,43.4897706520089
241546,-0.344300240278244,43.1859522482237
241653,-0.34305727481842,43.1859522482237
241762,-0.344507396221161,42.8821338444386
241878,-0.34388592839241,42.7085206520089
241986,-0.34388592839241,42.6217109338161
242089,-0.344300240278244,42.5783091966976
242199,-0.343471586704254,42.6651189148904
242308,-0.344507396221161,42.534913703535
242422,-0.343678742647171,42.534913703535
242530,-0.343471586704254,42.6651251588462
242638,-0.344093084335327,42.6651251588462
242745,-0.344300240278244,42.6217234217278
242854,-0.342850118875504,42.6651251588462
242966,-0.343264430761337,42.7519286330832
243076,-0.34388592839241,42.7953303702016
243184,-0.344300240278244,42.5783154406534
243291,-0.343678742647171,42.6217234217278
243400,-0.342850118875504,42.7085268959647
243514,-0.342850118875504,42.9689435626314
243621,-0.34305727481842,43.316163703535
243730,-0.34388592839241,43.316163703535
243837,-0.34388592839241,43.2727557224607
243946,-0.344300240278244,43.4029609338161
244058,-0.344093084335327,43.2727494785048
244167,-0.344300240278244,43.2293477413863
244278,-0.34305727481842,43.3595529527418
244384,-0.343264430761337,43.5331661451715
244492,-0.343678742647171,43.5765741262458
244604,-0.34388592839241,43.3161574595791
244713,-0.343678742647171,43.2727557224607
244825,-0.34388592839241,43.0991425300309
244932,-0.343471586704254,42.9689373186755
245039,-0.343678742647171,43.1425505111052
245153,-0.344921708106995,42.9689435626314
245260,-0.343471586704254,43.0557532808242
245367,-0.344093084335327,43.3595716846093
245475,-0.344300240278244,43.4029734217278
245587,-0.343471586704254,43.619988351276
245694,-0.343678742647171,43.7067980694688
245805,-0.34243580698967,43.8370032808242
245915,-0.344714552164078,43.7501998065872
246021,-0.343678742647171,43.7501998065872
246132,-0.344300240278244,43.4463814028021
246241,-0.342642962932587,43.619988351276
246351,-0.344093084335327,43.619988351276
246461,-0.343678742647171,43.5765866141575
246567,-0.343678742647171,43.7501998065872
246678,-0.344300240278244,43.7501998065872
246788,-0.34305727481842,43.923812999017
246897,-0.34388592839241,43.8804050179426
247007,-0.34305727481842,43.9672084921796
247113,-0.343471586704254,43.8370032808242
247223,-0.343678742647171,43.8370032808242
247337,-0.343264430761337,43.7501998065872
247443,-0.34388592839241,43.9238067550611
247553,-0.342850118875504,44.1842234217278
247659,-0.344507396221161,44.010610229298
247769,-0.344507396221161,43.9238067550611
247880,-0.343471586704254,44.0540182103724
247989,-0.344507396221161,43.923812999017
248099,-0.343471586704254,43.9672147361354
248205,-0.34305727481842,44.3578366141575
248315,-0.342850118875504,44.401238351276
248430,-0.342642962932587,44.7050567550611
248537,-0.343678742647171,44.8352682103724
248645,-0.34305727481842,44.7918664732539
248751,-0.344300240278244,44.7918664732539
248861,-0.34305727481842,44.7484647361354
248970,-0.34388592839241,44.6182532808242
249082,-0.343471586704254,44.705062999017
249191,-0.344093084335327,44.7918664732539
249297,-0.343264430761337,44.7484647361354
249406,-0.344507396221161,44.3144411209949
249516,-0.344921708106995,44.140834172521
249628,-0.344093084335327,0
249737,-0.343471586704254,63.5413919391963
249843,-0.344093084335327,61.9789294020332
249952,-0.34305727481842,38.1255664489585
250066,-0.343471586704254,37.9693209445851
250173,-0.343678742647171,37.1880934227184
250282,-0.343471586704254,38.2818344314651
250389,-0.343471586704254,38.1255889270917
250498,-0.344093084335327,38.4380799358384
250610,-0.343471586704254,38.5943254402118
250719,-0.342850118875504,32.6829129402738
250830,-0.344507396221161,49.4142275755723
250937,-0.343471586704254,49.2189185878185
251044,-0.342642962932587,44.0106497762148
251154,-0.34388592839241,43.5766164482097
251265,-0.343678742647171,43.489812280211
251374,-0.344300240278244,43.1425831202046
251484,-0.343264430761337,43.0557789522059
251590,-0.342850118875504,43.489812280211
251704,-0.342021465301514,33.2681433122737
251810,-0.344921708106995,42.1872350769658
251920,-0.342642962932587,42.298839926117
252028,-0.343264430761337,42.8010697752682
252140,-0.344093084335327,42.6894568981462
252248,-0.34305727481842,42.7452593227219
252357,-0.34388592839241,42.4662391718731
252464,-0.343678742647171,42.4662391718731
252573,-0.343264430761337,42.6336544735706
252688,-0.34388592839241,42.5778440210243
252792,-0.34305727481842,42.6336464455999
252903,-0.343264430761337,42.6336464455999
253010,-0.34388592839241,42.9126585684779
253119,-0.343264430761337,43.0242634176292
253237,-0.344300240278244,42.8568481159316
253340,-0.343678742647171,42.6894408422048
253449,-0.345128864049912,46.1454876662798
253556,-0.34388592839241,46.1975700005754
253665,-0.343471586704254,46.0413229976886
253778,-0.343264430761337,46.1454876662798
253888,-0.342642962932587,46.3538170034623
253995,-0.344714552164078,45.8850685020189
254102,-0.344507396221161,45.9371508363145
254211,-0.344093084335327,45.8850685020189
254321,-0.344093084335327,45.7288140063491
254432,-0.343471586704254,45.8850685020189
254541,-0.344093084335327,45.6246493377579
254648,-0.344507396221161,45.4163125077925
254757,-0.343471586704254,45.7288140063491
254871,-0.344093084335327,45.8850610092359
254978,-0.34305727481842,46.0933978392013
255087,-0.344507396221161,45.9892331706101
255194,-0.343471586704254,45.7809038334276
255303,-0.342228621244431,46.3017421619496
255417,-0.343471586704254,46.5621613262106
255524,-0.344093084335327,46.6142436605062
255638,-0.344300240278244,46.3017421619496
255740,-0.343264430761337,46.6142436605062
255849,-0.343678742647171,46.6663334875848
255959,-0.34388592839241,46.6663334875848
256070,-0.343264430761337,46.9267526518457
256180,-0.343264430761337,46.9788349861414
256286,-0.344300240278244,47.030917320437
256395,-0.343264430761337,47.1350819890282
256508,-0.343471586704254,47.1350819890282
256616,-0.343471586704254,47.2913364846979
256725,-0.344921708106995,47.1350894818111
256832,-0.34388592839241,46.8746703175501
256941,-0.343264430761337,46.8746703175501
257050,-0.34388592839241,46.8746703175501
257162,-0.342021465301514,47.4475909803677
257271,-0.344300240278244,47.2913364846979
257380,-0.344093084335327,46.9788349861414
257487,-0.343471586704254,46.8225879832545
257597,-0.344093084335327,46.5621688189935
257708,-0.344300240278244,46.4580041504023
257815,-0.343471586704254,46.5621763117765
257924,-0.343264430761337,46.8225954760375
258037,-0.34305727481842,47.0830146402985
258147,-0.343264430761337,47.3434338045594
258254,-0.345543205738068,46.7184308074463
258363,-0.344093084335327,46.5100939774809
258470,-0.344300240278244,46.3538394818111
258579,-0.343471586704254,46.4580116431853
258690,-0.344507396221161,46.2496748132199
258800,-0.344093084335327,46.1975924789243
258909,-0.342850118875504,46.3538394818111
259016,-0.343264430761337,46.4580041504023
259125,-0.343264430761337,46.8746703175501
259239,-0.342850118875504,47.030917320437
259346,-0.343678742647171,47.1350894818111
259455,-0.343678742647171,47.2913439774809
259562,-0.34305727481842,47.3955086460721
259671,-0.343678742647171,47.3955086460721
259788,-0.34388592839241,47.0309248132199
259889,-0.342850118875504,47.4996733146633
260001,-0.344300240278244,47.3434188189935
260108,-0.343678742647171,47.4996733146633
260217,-0.342850118875504,47.4475909803677
260331,-0.344507396221161,47.3434263117765
260438,-0.343471586704254,47.3955086460721
260547,-0.344300240278244,47.2392541504023
260654,-0.343678742647171,47.3955086460721
260763,-0.343678742647171,47.2392616431853
260879,-0.343264430761337,47.3955161388551
260988,-0.344507396221161,47.0309323060029
261090,-0.342642962932587,47.2392616431853
261199,-0.34305727481842,47.3955086460721
261309,-0.343678742647171,47.2913439774809
261423,-0.343264430761337,47.4475984731507
261529,-0.34305727481842,47.3955161388551
261639,-0.343471586704254,47.655935303116
261745,-0.34305727481842,48.0205191359682
261855,-0.34243580698967,48.2809308074463
261967,-0.343471586704254,48.5413499717073
262075,-0.343678742647171,48.4892676374116
262188,-0.34305727481842,48.4892676374116
262292,-0.342850118875504,48.4892676374116
262402,-0.344507396221161,48.0205191359682
262516,-0.344507396221161,47.8121823060029
262622,-0.343678742647171,47.655935303116
262732,-0.343678742647171,47.8121897987858
262839,-0.343678742647171,47.655942795899
262948,-0.344093084335327,47.6038604616034
263060,-0.343678742647171,47.5517781273078
263168,-0.344507396221161,47.4476134587166
263280,-0.34305727481842,47.4996957930122
263384,-0.342642962932587,47.9684442944556
263494,-0.34388592839241,48.2288559659336
263606,-0.343264430761337,48.437192795899
263714,-0.34388592839241,48.3330206345248
263824,-0.344093084335327,48.3330206345248
263930,-0.34305727481842,48.3330206345248
264040,-0.343264430761337,48.3851029688204
264154,-0.344507396221161,48.1767661388551
264260,-0.34388592839241,48.0725939774809
264370,-0.34388592839241,47.9684218161067
264476,-0.343678742647171,48.0725939774809
264589,-0.343264430761337,48.1246763117765
264698,-0.342850118875504,48.1246763117765
264806,-0.34305727481842,48.4892601446287
264916,-0.344300240278244,48.2809233146633
265022,-0.34388592839241,47.9684218161067
265134,-0.34388592839241,47.9684218161067
265241,-0.34388592839241,47.9163319890282
265352,-0.34388592839241,48.0204966576194
265461,-0.343678742647171,47.9163319890282
265568,-0.343264430761337,47.812167320437
265677,-0.344714552164078,47.1350819890282
265789,-0.343678742647171,47.4475834875848
265898,-0.343471586704254,47.2392541504023
266007,-0.343678742647171,47.1350894818111
266114,-0.344093084335327,47.1350894818111
266223,-0.343264430761337,47.0830071475155
266339,-0.344093084335327,47.0309248132199
266444,-0.343678742647171,47.0309248132199
266553,-0.343471586704254,46.9788424789243
266660,-0.343678742647171,47.0309323060029
266769,-0.344507396221161,46.6663484731507
266880,-0.343471586704254,46.6142661388551
266989,-0.343678742647171,46.6663559659336
267099,-0.342850118875504,46.7705206345248
267206,-0.34388592839241,46.874685303116
267315,-0.344714552164078,46.6142661388551
267430,-0.34388592839241,46.9267601446287
267538,-0.34305727481842,47.1350969745941
267645,-0.342850118875504,47.2913439774809
267752,-0.343471586704254,47.2392616431853
267861,-0.343471586704254,47.0309323060029
267973,-0.344714552164078,47.0309323060029
268082,-0.343678742647171,47.2392691359682
268191,-0.343471586704254,47.395523631638
268298,-0.344300240278244,47.3434412973424
268407,-0.344093084335327,47.1871868016726
268517,-0.344093084335327,47.1871868016726
268630,-0.343264430761337,47.4996883002292
268739,-0.34305727481842,47.6038529688204
268844,-0.344300240278244,47.5517706345248
268953,-0.343678742647171,47.395523631638
269067,-0.344300240278244,47.4476059659336
269174,-0.344507396221161,47.1871868016726
269284,-0.344300240278244,46.6663484731507
269390,-0.343471586704254,46.6663484731507
269499,-0.343678742647171,46.7705206345248
269610,-0.34388592839241,46.874685303116
269720,-0.344093084335327,46.6663484731507
269830,-0.34243580698967,46.9788424789243
269939,-0.344093084335327,46.9267601446287
270045,-0.34388592839241,46.7705056489589
270155,-0.344093084335327,46.5621688189935
270266,-0.343471586704254,46.7705056489589
270375,-0.343678742647171,46.6663409803677
270483,-0.343264430761337,46.7184233146633
270591,-0.341399997472763,47.2392541504023
270705,-0.342228621244431,47.9163394818111
270810,-0.344714552164078,47.7080101446287
270921,-0.343471586704254,47.6559278103331
271028,-0.343678742647171,47.7080176374116
271140,-0.343471586704254,47.3434338045594
271249,-0.342642962932587,47.7600999717073
271358,-0.34243580698967,48.1767661388551
271467,-0.344300240278244,47.9684293088897
271574,-0.343471586704254,48.1246838045594
271685,-0.34305727481842,48.437185303116
271797,-0.343471586704254,48.437185303116
271904,-0.34388592839241,48.2809308074463
272013,-0.343264430761337,48.2288484731507
272120,-0.344714552164078,47.8642646402985
272231,-0.343471586704254,48.3851029688204
272343,-0.344093084335327,48.3851029688204
272450,-0.345128864049912,48.176773631638
272559,-0.342850118875504,48.3330206345248
272666,-0.343678742647171,48.5413574644902
272775,-0.343471586704254,48.69761196016
272890,-0.344093084335327,48.3851104616034
272996,-0.343471586704254,48.3330281273078
273105,-0.343678742647171,48.2288634587166
273212,-0.342850118875504,48.2288634587166
273321,-0.344300240278244,48.0726089630468
273439,-0.344507396221161,47.8642721330814
273542,-0.343471586704254,47.7601074644902
273650,-0.34388592839241,47.7080176374116
273758,-0.343678742647171,47.7601074644902
273867,-0.344093084335327,47.4476059659336
273984,-0.34305727481842,47.7601074644902
274089,-0.34388592839241,47.7080176374116
274197,-0.34305727481842,47.655935303116
274304,-0.342850118875504,48.0726014702638
274413,-0.344300240278244,47.8642646402985
274525,-0.34305727481842,48.1767661388551
274635,-0.342642962932587,48.4371778103331
274743,-0.343264430761337,48.5413424789243
274850,-0.343471586704254,48.4892601446287
274959,-0.343471586704254,48.7496793088897
275073,-0.343471586704254,48.5413499717073
275181,-0.344093084335327,48.2809308074463
275290,-0.343264430761337,48.3850954760375
275396,-0.343471586704254,48.3330131417419
275505,-0.343264430761337,48.2809308074463
275617,-0.34388592839241,48.1767586460721
275726,-0.34388592839241,47.9684218161067
275836,-0.343471586704254,47.7080101446287
275942,-0.343678742647171,47.6559278103331
276051,-0.344093084335327,47.5517556489589
276161,-0.343264430761337,47.4996733146633
276272,-0.344093084335327,47.1871718161067
276382,-0.343471586704254,47.4475909803677
276491,-0.34305727481842,47.8121748132199
276597,-0.34388592839241,47.7600849861414
276711,-0.34305727481842,47.9163319890282
276818,-0.344093084335327,47.812159827654
276927,-0.344093084335327,47.812159827654
277034,-0.343471586704254,47.8642421619496
277143,-0.344714552164078,47.812159827654
277255,-0.343678742647171,47.6559128247672
277364,-0.344300240278244,47.2392466576194
277473,-0.342642962932587,47.551748156176
277582,-0.344507396221161,47.2392466576194
277691,-0.344507396221161,47.0829996547326
277799,-0.343678742647171,47.1871718161067
277910,-0.34305727481842,47.1871718161067
278019,-0.343471586704254,47.1350894818111
278126,-0.34388592839241,47.2913364846979
278236,-0.344300240278244,47.1871718161067
278348,-0.343678742647171,47.2392616431853
278456,-0.34388592839241,47.1871718161067
278565,-0.344507396221161,46.8746703175501
278672,-0.344093084335327,46.5621688189935
278782,-0.34388592839241,46.3538319890282
278891,-0.34305727481842,46.6663334875848
279002,-0.344300240278244,46.5621688189935
279111,-0.34305727481842,46.7705056489589
279218,-0.34305727481842,46.9788424789243
279327,-0.344300240278244,46.8746778103331
279441,-0.344300240278244,46.7184233146633
279545,-0.343471586704254,46.6663409803677
279657,-0.34305727481842,47.0830071475155
279765,-0.343471586704254,47.1350894818111
279874,-0.34388592839241,47.030917320437
279988,-0.343471586704254,47.0829996547326
280095,-0.342850118875504,47.3955011532892
280204,-0.344093084335327,47.1871643233238
280311,-0.34388592839241,47.2392466576194
280420,-0.343471586704254,47.291328991915
280533,-0.34305727481842,47.3954936605062
280642,-0.344300240278244,47.2392391648364
280750,-0.343471586704254,47.4996583290974
280857,-0.344093084335327,47.3434038334276
280966,-0.343264430761337,47.4475685020189
281076,-0.34388592839241,47.1871493377579
281185,-0.343471586704254,47.291321499132
281296,-0.344714552164078,47.291321499132
281402,-0.343471586704254,47.3954936605062
281512,-0.343471586704254,47.291328991915
281626,-0.344507396221161,46.8746628247672
281731,-0.34305727481842,46.9788274933584
281843,-0.343264430761337,47.030909827654
281948,-0.344921708106995,46.9788274933584
282058,-0.344300240278244,46.8225729976886
282170,-0.34388592839241,46.7184008363145
282278,-0.344714552164078,46.6142361677232
282389,-0.342642962932587,46.9788200005754
282494,-0.344093084335327,46.9788200005754
282604,-0.343471586704254,46.9267376662798
282718,-0.343678742647171,46.770490663393
282824,-0.344714552164078,46.6663259948018
282931,-0.343264430761337,46.770490663393
283045,-0.34388592839241,46.8746553319842
283150,-0.343264430761337,47.1871568305408
283264,-0.34305727481842,47.4996583290974
283370,-0.344093084335327,47.3434038334276
283480,-0.34243580698967,47.6558978392013
283587,-0.344093084335327,47.6038155049057
283698,-0.343678742647171,47.7079876662798
283807,-0.344093084335327,47.291321499132
283916,-0.343264430761337,47.4996583290974
284023,-0.342642962932587,47.812159827654
284132,-0.34388592839241,47.8642421619496
284244,-0.342850118875504,48.0204891648364
284353,-0.343678742647171,48.0204891648364
284462,-0.344714552164078,47.6559053319842
284569,-0.34305727481842,47.2392391648364
284678,-0.34388592839241,46.8225655049057
284794,-0.343471586704254,47.1350670034623
284901,-0.343264430761337,47.1871493377579
285008,-0.344507396221161,46.9788125077925
285115,-0.343678742647171,46.9267301734969
285224,-0.343264430761337,46.7704831706101
285337,-0.342642962932587,46.7184008363145
285445,-0.344714552164078,46.6142361677232
285554,-0.344300240278244,46.4058993377579
285661,-0.344507396221161,46.0413155049057
285770,-0.34305727481842,46.1454801734969
285880,-0.344714552164078,45.9371508363145
285994,-0.344300240278244,45.6767316720535
286100,-0.34388592839241,45.8850610092359
286207,-0.34305727481842,45.9892256778271
286316,-0.345543205738068,45.6246418449749
286429,-0.34305727481842,46.1454726807139
286537,-0.343264430761337,46.0413080121227
286646,-0.343264430761337,46.1454726807139
286753,-0.343264430761337,46.1975550150095
286862,-0.344093084335327,46.1975550150095
286971,-0.344714552164078,45.8850535164529
287085,-0.343264430761337,45.9892181850442
287193,-0.34305727481842,45.9371358507486
287299,-0.34305727481842,46.2496373493052
287408,-0.343471586704254,46.5100565135661
287518,-0.342642962932587,46.7183858507486
287629,-0.342850118875504,46.9788050150095
287739,-0.344300240278244,46.8225505193398
287845,-0.343471586704254,46.9788050150095
287954,-0.34388592839241,46.7704681850442
288068,-0.344300240278244,46.6663035164529
288175,-0.343264430761337,46.6142211821573
288282,-0.344093084335327,46.3017196836008
288394,-0.344300240278244,46.3017196836008
288500,-0.344093084335327,46.0413005193398
288611,-0.343264430761337,45.8850535164529
288721,-0.344300240278244,45.624634352192
288830,-0.343471586704254,45.624634352192
288939,-0.343678742647171,45.5725520178964
289046,-0.34305727481842,45.6767166864876
289156,-0.344507396221161,45.5725520178964
289267,-0.345336049795151,45.0517136893744
289376,-0.344300240278244,44.843376859409
289485,-0.34388592839241,44.6871223637392
289593,-0.343471586704254,44.7912945251134
289706,-0.343678742647171,44.843384352192
289811,-0.343678742647171,44.7913020178964
289922,-0.343471586704254,44.843384352192
290029,-0.343471586704254,44.9996388478617
290140,-0.34388592839241,0
290250,-0.344300240278244,100
290359,-0.34388592839241,100
290468,-0.344507396221161,100
290575,-0.343471586704254,73.2806026297618
290685,-0.344300240278244,72.3431071253884
290798,-0.343264430761337,60.8070512743664
290905,-0.342642962932587,41.1459998401535
291014,-0.344300240278244,40.7987706801471
291121,-0.344507396221161,40.8855748481458
291230,-0.34388592839241,40.7987581921356
291344,-0.34305727481842,41.3195956881394
291451,-0.343471586704254,40.9723790161445
291560,-0.344300240278244,41.0591831841432
291667,-0.34388592839241,41.3195956881394
291776,-0.343264430761337,41.4932040241368
291889,-0.344093084335327,41.0591706961317
291997,-0.34388592839241,40.8855498721228
292106,-0.34388592839241,40.8855498721228
292213,-0.34388592839241,41.0591582081202
292322,-0.342850118875504,41.4063748801151
292437,-0.343471586704254,41.579995704124
292544,-0.344714552164078,47.3437882133763
292651,-0.343264430761337,47.6562949569133
292759,-0.34305727481842,47.9688017004503
292868,-0.344507396221161,47.4219233286818
292980,-0.34388592839241,47.5781710808361
293089,-0.343471586704254,47.4219233286818
293198,-0.343264430761337,47.3437994526046
293305,-0.343471586704254,47.6563061961416
293414,-0.344300240278244,47.6563061961416
293526,-0.344300240278244,47.3437994526046
293632,-0.34388592839241,47.0312927090676
293744,-0.344093084335327,46.7969098416078
293851,-0.344507396221161,46.5625382133763
293960,-0.343264430761337,46.6406620894535
294074,-0.344507396221161,46.0156598416078
294181,-0.34388592839241,46.093783717685
294295,-0.344507396221161,45.8594120894535
294397,-0.343471586704254,45.8594120894535
294506,-0.344300240278244,45.3906575937621
294618,-0.344300240278244,45.3906575937621
294727,-0.343471586704254,45.3906575937621
294837,-0.344093084335327,45.3906575937621
294945,-0.34388592839241,45.1562747263023
295052,-0.343471586704254,45.312533717685
295162,-0.344507396221161,44.9219030980708
295273,-0.344300240278244,45.0781508502251
295380,-0.344093084335327,44.8437679827653
295494,-0.344300240278244,44.5312612392283
295598,-0.34388592839241,44.7656328674598
295709,-0.343471586704254,44.6093851153055
295819,-0.342850118875504,44.7656328674598
295928,-0.34388592839241,45.1562522478457
296037,-0.343678742647171,45.3906351153055
296144,-0.342850118875504,45.7812657349197
296256,-0.344300240278244,45.937513487074
296365,-0.343264430761337,45.7031418588425
296474,-0.343471586704254,45.9375247263023
296581,-0.344093084335327,45.7031418588425
296694,-0.343678742647171,45.7031418588425
296800,-0.343471586704254,46.1718963545338
296910,-0.343471586704254,46.0937724784566
297020,-0.344714552164078,45.781276974148
297126,-0.344300240278244,45.3906463545338
297238,-0.343678742647171,45.1562747263023
297350,-0.343264430761337,45.4687814698393
297457,-0.34388592839241,44.9219030980708
297567,-0.34305727481842,45.312533717685
297673,-0.344093084335327,45.1562747263023
297783,-0.343471586704254,45.3906575937621
297895,-0.343264430761337,45.3906575937621
298003,-0.34305727481842,45.2344098416078
298113,-0.343678742647171,45.3125449569133
298219,-0.344093084335327,44.843790461222
298329,-0.34388592839241,44.7656553459165
298445,-0.342850118875504,45.4687814698393
298549,-0.343264430761337,45.3906575937621
298659,-0.342850118875504,45.7812882133763
298765,-0.343471586704254,45.7812882133763
298875,-0.343264430761337,45.7812882133763
298991,-0.34388592839241,46.0156598416078
299095,-0.34388592839241,45.9375247263023
299205,-0.34305727481842,46.0156486023795
299311,-0.345128864049912,45.0781508502251
299423,-0.343264430761337,45.6250292219936
299532,-0.342850118875504,46.1719075937621
299645,-0.342850118875504,46.7969098416078
299751,-0.344093084335327,46.4062792219936
299857,-0.344714552164078,46.4062792219936
299967,-0.343471586704254,46.7187859655306
300077,-0.343264430761337,46.9531688329905
300188,-0.344093084335327,46.5625382133763
300297,-0.34388592839241,47.187540461222
300403,-0.34388592839241,46.875033717685
300513,-0.343678742647171,46.7187859655306
300626,-0.343471586704254,46.6406620894535
300732,-0.343678742647171,46.4844143372991
300845,-0.343678742647171,46.6406733286818
300949,-0.344093084335327,46.8750449569133
301058,-0.343471586704254,46.7969210808361
301168,-0.343678742647171,46.5625494526046
301279,-0.343678742647171,46.3281778243731
301388,-0.343471586704254,46.3281778243731
301495,-0.343471586704254,46.0156823200645
301604,-0.344507396221161,45.3906800722188
301718,-0.344093084335327,45.468803948296
301825,-0.344300240278244,45.156297204759
301932,-0.343471586704254,45.3125561961416
302044,-0.344093084335327,45.3906800722188
302150,-0.344093084335327,45.0781733286818
302264,-0.344300240278244,45.0000494526046
302371,-0.344093084335327,45.0781733286818
302478,-0.343678742647171,45.2344323200645
302588,-0.344300240278244,44.8438017004503
302696,-0.344507396221161,44.7656778243731
302808,-0.344507396221161,44.375047204759
302917,-0.34388592839241,44.2969120894535
303026,-0.344507396221161,43.750033717685
303135,-0.343471586704254,44.1406643372991
303243,-0.344921708106995,44.2969233286818
303356,-0.344921708106995,44.0625517004503
303463,-0.34305727481842,44.3750584439873
303571,-0.34388592839241,44.2187994526046
303679,-0.343678742647171,44.2187994526046
303790,-0.344507396221161,43.9062927090676
303900,-0.34388592839241,43.750033717685
304009,-0.343264430761337,43.8281575937621
304118,-0.344507396221161,43.5937859655306
304225,-0.34388592839241,43.750033717685
304334,-0.344300240278244,43.5937859655306
304446,-0.344093084335327,43.750033717685
304555,-0.343471586704254,43.750033717685
304664,-0.34388592839241,43.9062814698393
304771,-0.343471586704254,43.8281575937621
304880,-0.345128864049912,42.8906598416078
304997,-0.344093084335327,42.968783717685
305101,-0.344507396221161,42.968783717685
305210,-0.344093084335327,42.8906598416078
305317,-0.343678742647171,42.6562882133763
305426,-0.34243580698967,43.0469075937621
305540,-0.344300240278244,43.0469075937621
305647,-0.344093084335327,42.968783717685
305756,-0.343471586704254,42.8906598416078
305863,-0.34305727481842,43.281290461222
305972,-0.344714552164078,42.9687949569133
306082,-0.344507396221161,42.7344233286818
306198,-0.344093084335327,42.6562994526046
306302,-0.343471586704254,42.4219278243731
306409,-0.34388592839241,42.2656688329905
306518,-0.34305727481842,42.8906710808361
306632,-0.344300240278244,42.500040461222
306740,-0.34388592839241,42.187533717685
306848,-0.34388592839241,42.4219053459165
306955,-0.344093084335327,42.3437814698393
307064,-0.344093084335327,42.1093986023795
307176,-0.343264430761337,42.1093986023795
307285,-0.343678742647171,42.0312747263023
307397,-0.343678742647171,42.2656575937621
307501,-0.344093084335327,42.3437814698393
307610,-0.34388592839241,42.3437814698393
307720,-0.344300240278244,42.2656575937621
307831,-0.344093084335327,42.4219053459165
307940,-0.344300240278244,42.0312747263023
308047,-0.344507396221161,42.0312747263023
308156,-0.343471586704254,42.187533717685
308269,-0.344507396221161,42.187533717685
308377,-0.34388592839241,42.0312747263023
308488,-0.34305727481842,42.5000292219936
308597,-0.342850118875504,43.0469075937621
308702,-0.344507396221161,42.656276974148
308811,-0.344093084335327,42.656276974148
308923,-0.34388592839241,42.656276974148
309032,-0.343678742647171,42.5781530980708
309140,-0.344300240278244,42.656276974148
309248,-0.344300240278244,42.656276974148
309358,-0.342850118875504,43.1250314698393
309469,-0.344300240278244,43.1250314698393
309576,-0.344093084335327,43.0469075937621
309685,-0.342642962932587,43.3594030980708
309797,-0.34243580698967,43.5156508502251
309908,-0.341814309358597,44.2969120894535
310015,-0.34388592839241,44.218776974148
310124,-0.344507396221161,43.5937747263023
310231,-0.343471586704254,43.9062814698393
310340,-0.344300240278244,43.5156508502251
310453,-0.34305727481842,43.6718986023795
310561,-0.344093084335327,43.6718986023795
310670,-0.344507396221161,43.3593918588425
310777,-0.344093084335327,43.1250089913827
310888,-0.344093084335327,42.8906261239228
310997,-0.343471586704254,43.3593806196142
311107,-0.343471586704254,43.6718873631512
311216,-0.343678742647171,43.6718873631512
311323,-0.34243580698967,43.9843828674598
311432,-0.343678742647171,44.0625179827653
311547,-0.344093084335327,43.6718873631512
311651,-0.34388592839241,43.7500112392283
311762,-0.343678742647171,43.6718873631512
311869,-0.344507396221161,43.2031328674598
311978,-0.344093084335327,42.8125022478457
312092,-0.344714552164078,42.4218716282315
312199,-0.342850118875504,42.8906261239228
312308,-0.34243580698967,43.4375044956913
312415,-0.344507396221161,42.8125022478457
312524,-0.343264430761337,42.8125022478457
312638,-0.343678742647171,42.500006743537
312747,-0.343678742647171,42.4218828674598
312851,-0.344093084335327,42.1093761239228
312961,-0.344507396221161,41.8750044956913
313070,-0.34388592839241,41.8750044956913
313184,-0.343264430761337,41.7968806196142
313292,-0.34243580698967,42.8125022478457
313400,-0.343678742647171,42.6562544956913
313507,-0.343264430761337,42.500006743537
313616,-0.34388592839241,42.1093761239228
313728,-0.344093084335327,42.1093761239228
313838,-0.342850118875504,42.8125022478457
313947,-0.343471586704254,42.8125022478457
314053,-0.343264430761337,42.8125022478457
314162,-0.344714552164078,42.5781306196142
314276,-0.344093084335327,42.500006743537
314383,-0.343264430761337,42.7343896109968
314493,-0.34305727481842,42.9687612392283
314599,-0.345336049795151,42.2656238760772
314709,-0.343471586704254,42.3437477521543
314820,-0.344300240278244,42.1093648846945
314930,-0.344714552164078,41.874993256463
315036,-0.343471586704254,41.874993256463
315148,-0.34305727481842,42.1093648846945
315258,-0.343264430761337,42.2656126368488
315366,-0.34305727481842,42.4218603890032
315476,-0.343264430761337,42.4999842650804
315582,-0.343471586704254,42.8906148846945
315693,-0.34305727481842,43.2812455043087
315802,-0.344093084335327,43.3593693803858
315912,-0.34243580698967,43.7499887607717
316022,-0.343678742647171,43.9062477521543
316128,-0.343678742647171,44.062506743537
316239,-0.343678742647171,44.2968896109968
316350,-0.344507396221161,44.1406418588425
316458,-0.344300240278244,43.9062589913827
316567,-0.343264430761337,44.2968896109968
316674,-0.342850118875504,44.9218918588425
316783,-0.344093084335327,45.0781396109968
316898,-0.343678742647171,45.1562747263023
317004,-0.344921708106995,45.000026974148
317113,-0.34243580698967,45.3906463545338
317220,-0.343471586704254,45.9375247263023
317329,-0.343678742647171,46.4062792219936
317441,-0.344507396221161,45.8594008502251
317550,-0.343264430761337,46.093783717685
317659,-0.342850118875504,46.4062792219936
