time,raw,transformed
7460,-0.344300240278244,0
7570,-0.344300240278244,0
7680,-0.343678742647171,0
7790,-0.343264430761337,0
7900,-0.344507396221161,0
8010,-0.344300240278244,0
8120,-0.344093084335327,0
8230,-0.342850118875504,0
8340,-0.343264430761337,0
8450,-0.344093084335327,0
8560,-0.344921708106995,0
8660,-0.344507396221161,0
8770,-0.344714552164078,0
8880,-0.344300240278244,0
8990,-0.345128864049912,0
9100,-0.343264430761337,0
9210,-0.344093084335327,0
9320,-0.34305727481842,0
9430,-0.343264430761337,0
9540,-0.342850118875504,0
9650,-0.343264430761337,0
9760,-0.34243580698967,0
9870,-0.342850118875504,0
9970,-0.343264430761337,0
10080,-0.344300240278244,0
10190,-0.344714552164078,0
10300,-0.344507396221161,0
10410,-0.342850118875504,0
10520,-0.343471586704254,0
10630,-0.34388592839241,0
10740,-0.344093084335327,0
10850,-0.344300240278244,0
10960,-0.344093084335327,0
11070,-0.343678742647171,0
11180,-0.343678742647171,0
11290,-0.343678742647171,0
11390,-0.34305727481842,0
11500,-0.34243580698967,0
11610,-0.34305727481842,0
11720,-0.34305727481842,0
11830,-0.343471586704254,0
11940,-0.34388592839241,0
12050,-0.343264430761337,0
12160,-0.34388592839241,0
12270,-0.343678742647171,0
12380,-0.343264430761337,0
12490,-0.342850118875504,0
12600,-0.344507396221161,0
12700,-0.342850118875504,0
12810,-0.343471586704254,0
12920,-0.343471586704254,0
13030,-0.344300240278244,0
13140,-0.344714552164078,0
13250,-0.343264430761337,0
13360,-0.344093084335327,0
13470,-0.344300240278244,0
13580,-0.344093084335327,0
13690,-0.344507396221161,0
13800,-0.343678742647171,0
13910,-0.343264430761337,0
14020,-0.345128864049912,0
14120,-0.343471586704254,0
14230,-0.343264430761337,0
14340,-0.344921708106995,0
14450,-0.344093084335327,0
14560,-0.343264430761337,0
14670,-0.34305727481842,0
14780,-0.344507396221161,0
14890,-0.344300240278244,0
15000,-0.34388592839241,0
15110,-0.344093084335327,0
15220,-0.343678742647171,0
15330,-0.34388592839241,0
15430,-0.342021465301514,0
15540,-0.344714552164078,0
15650,-0.342850118875504,0
15760,-0.344507396221161,0
15870,-0.34305727481842,0
15980,-0.343264430761337,0
16090,-0.343678742647171,0
16200,-0.343471586704254,0
16310,-0.34388592839241,0
16420,-0.343471586704254,0
16530,-0.344093084335327,0
16640,-0.34305727481842,0
16750,-0.343471586704254,0
16850,-0.344714552164078,0
16960,-0.344714552164078,0
17070,-0.344300240278244,0
17180,-0.344300240278244,0
17290,-0.344093084335327,0
17400,-0.344093084335327,0
17510,-0.342642962932587,0
17620,-0.343471586704254,0
17730,-0.343678742647171,0
17840,-0.34305727481842,0
17950,-0.344093084335327,0
18060,-0.342642962932587,0
18170,-0.343264430761337,0
18270,-0.343678742647171,0
18380,-0.343678742647171,0
18490,-0.344093084335327,0
18600,-0.345128864049912,0
18710,-0.344093084335327,0
18820,-0.344093084335327,0
18930,-0.344093084335327,0
19040,-0.344921708106995,0
19150,-0.343678742647171,0
19260,-0.343264430761337,0
19370,-0.343471586704254,0
19480,-0.34305727481842,0
19580,-0.342850118875504,0
19690,-0.344714552164078,0
19800,-0.344507396221161,0
19910,-0.343678742647171,0
20020,-0.34305727481842,0
20130,-0.343264430761337,0
20240,-0.343678742647171,0
20350,-0.34305727481842,0
20460,-0.343471586704254,0
20570,-0.34305727481842,0
20680,-0.344093084335327,0
20790,-0.344507396221161,0
20900,-0.344714552164078,0
21000,-0.34388592839241,0
21110,-0.343264430761337,0
21220,-0.34388592839241,0
21330,-0.343471586704254,0
21440,-0.343264430761337,0
21550,-0.344714552164078,0
21660,-0.342850118875504,0
21770,-0.34388592839241,0
21880,-0.34388592839241,0
21990,-0.343264430761337,0
22100,-0.343471586704254,0
22210,-0.34305727481842,0
22310,-0.344507396221161,0
22420,-0.343471586704254,0
22530,-0.34388592839241,0
22640,-0.343264430761337,0
22750,-0.34388592839241,0
22860,-0.34388592839241,0
22970,-0.344507396221161,0
23080,-0.344921708106995,0
23190,-0.34305727481842,0
23300,-0.34388592839241,0
23410,-0.34305727481842,0
23520,-0.343471586704254,0
23630,-0.34388592839241,0
23730,-0.343678742647171,0
23840,-0.344300240278244,0
23950,-0.34388592839241,0
24060,-0.343471586704254,0
24170,-0.344507396221161,0
24280,-0.342642962932587,0
24390,-0.345336049795151,0
24500,-0.34388592839241,0
24610,-0.343678742647171,0
24720,-0.343678742647171,0
24830,-0.345128864049912,0
24940,-0.343678742647171,0
25040,-0.34305727481842,0
25150,-0.344507396221161,0
25260,-0.342850118875504,0
25370,-0.345957517623901,0
25480,-0.344300240278244,0
25590,-0.344093084335327,0
25700,-0.343678742647171,0
25810,-0.343678742647171,0
25920,-0.34388592839241,0
26030,-0.343471586704254,0
26140,-0.343678742647171,0
26250,-0.344093084335327,0
26360,-0.343471586704254,0
26460,-0.344093084335327,0
26570,-0.34388592839241,0
26680,-0.344507396221161,0
26790,-0.344093084335327,0
26900,-0.344300240278244,0
27010,-0.34388592839241,0
27120,-0.344507396221161,0
27230,-0.345128864049912,0
27340,-0.344093084335327,0
27450,-0.34305727481842,0
27560,-0.344714552164078,0
27670,-0.342850118875504,0
27770,-0.342642962932587,0
27880,-0.343471586704254,0
27990,-0.345750361680985,0
28100,-0.343471586704254,0
28210,-0.344507396221161,0
28320,-0.343264430761337,0
28430,-0.343264430761337,0
28540,-0.342850118875504,0
28650,-0.342850118875504,0
28760,-0.342850118875504,0
28870,-0.343678742647171,0
28980,-0.344300240278244,0
29090,-0.342228621244431,0
29190,-0.343678742647171,0
29300,-0.344300240278244,0
29410,-0.344093084335327,0
29520,-0.343678742647171,0
29630,-0.343264430761337,0
29740,-0.343678742647171,0
29850,-0.34388592839241,0
29960,-0.342850118875504,0
30070,-0.344300240278244,0
30180,-0.343471586704254,0
30290,-0.34388592839241,0
30400,-0.343264430761337,0
30500,-0.343264430761337,0
30610,-0.344714552164078,0
30720,-0.344300240278244,0
30830,-0.343678742647171,0
30940,-0.336842477321625,0
31050,-0.369573771953583,0
31160,-0.35196515917778,0
31270,-0.348650604486465,0
31380,-0.362944662570953,0
31490,-0.361494541168213,0
31600,-0.361494541168213,0
31710,-0.364809095859528,0
31820,-0.357558488845825,0
31920,-0.348857760429382,0
32030,-0.355901211500168,0
32140,-0.348029106855392,0
32250,-0.359837263822556,0
32360,-0.351758003234863,0
32470,-0.344714552164078,0
32580,-0.320269644260406,0
32690,-0.401890754699707,0
32800,-0.338914066553116,0
32910,-0.348236292600632,0
33020,-0.337049633264542,0
33130,-0.345336049795151,0
33230,-0.344093084335327,0
33340,-0.343678742647171,0
33450,-0.341192841529846,0
33560,-0.34077849984169,0
33670,-0.341192841529846,0
33780,-0.343471586704254,0
33890,-0.343678742647171,0
34000,-0.344300240278244,0
34110,-0.343264430761337,0
34220,-0.344300240278244,0
34330,-0.343264430761337,0
34440,-0.34388592839241,0
34550,-0.34305727481842,0
34650,-0.34388592839241,0
34760,-0.34388592839241,0
34870,-0.343264430761337,0
34980,-0.342642962932587,0
35090,-0.344714552164078,0
35200,-0.342850118875504,0
35310,-0.34305727481842,0
35420,-0.342021465301514,0
35530,-0.343471586704254,0
35640,-0.345128864049912,0
35750,-0.344507396221161,0
35860,-0.343678742647171,0
35960,-0.344093084335327,0
36070,-0.345543205738068,0
36180,-0.344507396221161,0
36290,-0.343471586704254,0
36400,-0.343678742647171,0
36510,-0.343264430761337,0
36620,-0.343471586704254,0
36730,-0.343678742647171,0
36840,-0.34388592839241,0
36950,-0.344507396221161,0
37060,-0.344093084335327,0
37170,-0.34388592839241,0
37280,-0.344300240278244,0
37380,-0.343471586704254,0
37490,-0.344714552164078,0
37600,-0.344300240278244,0
37710,-0.343678742647171,0
37820,-0.343678742647171,0
37930,-0.344507396221161,0
38040,-0.34388592839241,0
38150,-0.344714552164078,0
38260,-0.345128864049912,0
38370,-0.342850118875504,0
38480,-0.343471586704254,0
38590,-0.343678742647171,0
38690,-0.343264430761337,0
38800,-0.34388592839241,0
38910,-0.343678742647171,0
39020,-0.344300240278244,0
39130,-0.344093084335327,0
39240,-0.343678742647171,0
39350,-0.344093084335327,0
39460,-0.343678742647171,0
39570,-0.343678742647171,0
39680,-0.344714552164078,0
39790,-0.34388592839241,0
39900,-0.343678742647171,0
40010,-0.343678742647171,0
40110,-0.343471586704254,0
40220,-0.343471586704254,0
40330,-0.34388592839241,0
40440,-0.34388592839241,0
40550,-0.344507396221161,0
40660,-0.343264430761337,0
40770,-0.343264430761337,0
40880,-0.343471586704254,0
40990,-0.344507396221161,0
41100,-0.344921708106995,0
41210,-0.343264430761337,0
41320,-0.343471586704254,0
41420,-0.343678742647171,0
41530,-0.34388592839241,0
41640,-0.344921708106995,0
41750,-0.344507396221161,0
41860,-0.344921708106995,0
41970,-0.344714552164078,0
42080,-0.344093084335327,0
42190,-0.344300240278244,0
42300,-0.344507396221161,0
42410,-0.344300240278244,0
42520,-0.34388592839241,0
42630,-0.343471586704254,0
42740,-0.344714552164078,0
42840,-0.344300240278244,0
42950,-0.344093084335327,0
43060,-0.343264430761337,0
43170,-0.342850118875504,0
43280,-0.344093084335327,0
43390,-0.34388592839241,0
43500,-0.344921708106995,0
43610,-0.34388592839241,0
43720,-0.34388592839241,0
43830,-0.344093084335327,0
43940,-0.343471586704254,0
44050,-0.343471586704254,0
44150,-0.344093084335327,0
44260,-0.344300240278244,0
44370,-0.344507396221161,0
44480,-0.343678742647171,0
44590,-0.34388592839241,0
44700,-0.344507396221161,0
44810,-0.344507396221161,0
44920,-0.343678742647171,0
45030,-0.34388592839241,0
45140,-0.343678742647171,0
45250,-0.343678742647171,0
45360,-0.344507396221161,0
45470,-0.344093084335327,0
45570,-0.344921708106995,0
45680,-0.34388592839241,0
45790,-0.344300240278244,0
45900,-0.34388592839241,0
46010,-0.344300240278244,0
46120,-0.343471586704254,0
46230,-0.344300240278244,0
46340,-0.34388592839241,0
46450,-0.343471586704254,0
46560,-0.34388592839241,0
46670,-0.343471586704254,0
46780,-0.34388592839241,0
46880,-0.343471586704254,0
46990,-0.345336049795151,0
47100,-0.34388592839241,0
47210,-0.344714552164078,0
47320,-0.34388592839241,0
47430,-0.343471586704254,0
47540,-0.34305727481842,0
47650,-0.34388592839241,0
47760,-0.343471586704254,0
47870,-0.344093084335327,0
47980,-0.344300240278244,0
48090,-0.343471586704254,0
48200,-0.34305727481842,0
48300,-0.34305727481842,0
48410,-0.344714552164078,0
48520,-0.344093084335327,0
48630,-0.344093084335327,0
48740,-0.344507396221161,0
48850,-0.344093084335327,0
48960,-0.343264430761337,0
49070,-0.34388592839241,0
49180,-0.344300240278244,0
49290,-0.344507396221161,0
49400,-0.34388592839241,0
49510,-0.34388592839241,0
49610,-0.343678742647171,0
49720,-0.344300240278244,0
49830,-0.343471586704254,0
49940,-0.34305727481842,0
50050,-0.34388592839241,0
50160,-0.344093084335327,0
50270,-0.34305727481842,0
50380,-0.34305727481842,0
50490,-0.344921708106995,0
50600,-0.343471586704254,0
50710,-0.343264430761337,0
50820,-0.343471586704254,0
50930,-0.345128864049912,0
51030,-0.344300240278244,0
51140,-0.343264430761337,0
51250,-0.344300240278244,0
51360,-0.344507396221161,0
51470,-0.344714552164078,0
51580,-0.342228621244431,0
51690,-0.342850118875504,0
51800,-0.343471586704254,0
51910,-0.343471586704254,0
52020,-0.34305727481842,0
52130,-0.34388592839241,0
52240,-0.34388592839241,0
52340,-0.343678742647171,0
52450,-0.343264430761337,0
52560,-0.343264430761337,0
52670,-0.342850118875504,0
52780,-0.34305727481842,0
52890,-0.344093084335327,0
53000,-0.343471586704254,0
53110,-0.34388592839241,0
53220,-0.344921708106995,0
53330,-0.344300240278244,0
53440,-0.343678742647171,0
53550,-0.34388592839241,0
53660,-0.344093084335327,0
53760,-0.342642962932587,0
53870,-0.343678742647171,0
53980,-0.344300240278244,0
54090,-0.34388592839241,0
54200,-0.344300240278244,0
54310,-0.34305727481842,0
54420,-0.342642962932587,0
54530,-0.343678742647171,0
54640,-0.342850118875504,0
54750,-0.344093084335327,0
54860,-0.342850118875504,0
54970,-0.34388592839241,0
55070,-0.344507396221161,0
55180,-0.343678742647171,0
55290,-0.34388592839241,0
55400,-0.344300240278244,0
55510,-0.34305727481842,0
55620,-0.344093084335327,0
55730,-0.343678742647171,0
55840,-0.343264430761337,0
55950,-0.344093084335327,0
56060,-0.34388592839241,0
56170,-0.343678742647171,0
56280,-0.34388592839241,0
56390,-0.34388592839241,0
56490,-0.344300240278244,0
56600,-0.34388592839241,0
56710,-0.343678742647171,0
56820,-0.343678742647171,0
56930,-0.34305727481842,0
57040,-0.343471586704254,0
57150,-0.343471586704254,0
57260,-0.34305727481842,0
57370,-0.343264430761337,0
57480,-0.344300240278244,0
57590,-0.344507396221161,0
57700,-0.343471586704254,0
57800,-0.343471586704254,0
57910,-0.344300240278244,0
58020,-0.34305727481842,0
58130,-0.343678742647171,0
58240,-0.343471586704254,0
58350,-0.344714552164078,0
58460,-0.34305727481842,0
58570,-0.344921708106995,0
58680,-0.344507396221161,0
58790,-0.345128864049912,0
58900,-0.344093084335327,0
59010,-0.344093084335327,0
59120,-0.344300240278244,0
59220,-0.342642962932587,0
59330,-0.344300240278244,0
59440,-0.344093084335327,0
59550,-0.344714552164078,0
59670,-0.34388592839241,0
59770,-0.343678742647171,0
59880,-0.344507396221161,0
59990,-0.343678742647171,0
60100,-0.344714552164078,0
60210,-0.344921708106995,0
60320,-0.342642962932587,0
60430,-0.34305727481842,0
60530,-0.345128864049912,0
60640,-0.342228621244431,0
60750,-0.343678742647171,0
60860,-0.344300240278244,0
60970,-0.343264430761337,0
61080,-0.344093084335327,0
61190,-0.344300240278244,0
61300,-0.344921708106995,0
61410,-0.34388592839241,0
61520,-0.343264430761337,0
61630,-0.344300240278244,0
61740,-0.344507396221161,0
61850,-0.343471586704254,0
61950,-0.34388592839241,0
62060,-0.343678742647171,0
62170,-0.345336049795151,0
62280,-0.34388592839241,0
62390,-0.344714552164078,0
62500,-0.344507396221161,0
62610,-0.343678742647171,0
62720,-0.343471586704254,0
62830,-0.343678742647171,0
62940,-0.344093084335327,0
63050,-0.344300240278244,0
63160,-0.343678742647171,0
63260,-0.343678742647171,0
63370,-0.34388592839241,0
63480,-0.343678742647171,0
63590,-0.344921708106995,0
63700,-0.344507396221161,0
63810,-0.344300240278244,0
63920,-0.344921708106995,0
64030,-0.343471586704254,0
64140,-0.344507396221161,0
64250,-0.342642962932587,0
64360,-0.344714552164078,0
64470,-0.345128864049912,0
64580,-0.343678742647171,0
64680,-0.34388592839241,0
64790,-0.34388592839241,0
64900,-0.34388592839241,0
65010,-0.34388592839241,0
65120,-0.34388592839241,0
65230,-0.34388592839241,0
65340,-0.34388592839241,0
65450,-0.34388592839241,0
65560,-0.34305727481842,0
65670,-0.34305727481842,0
65780,-0.343471586704254,0
65890,-0.343678742647171,0
65990,-0.344921708106995,0
66100,-0.344093084335327,0
66210,-0.343678742647171,0
66320,-0.345128864049912,0
66430,-0.344093084335327,0
66540,-0.34388592839241,0
66650,-0.343471586704254,0
66760,-0.344921708106995,0
66870,-0.343264430761337,0
66980,-0.34305727481842,0
67090,-0.34388592839241,0
67200,-0.343678742647171,0
67310,-0.34388592839241,0
67410,-0.34388592839241,0
67520,-0.344093084335327,0
67630,-0.343264430761337,0
67740,-0.342642962932587,0
67850,-0.343264430761337,0
67960,-0.343471586704254,0
68070,-0.343678742647171,0
68180,-0.34388592839241,0
68290,-0.343471586704254,0
68400,-0.344714552164078,0
68510,-0.344093084335327,0
68620,-0.34388592839241,0
68720,-0.343678742647171,0
68830,-0.34388592839241,0
68940,-0.343471586704254,0
69050,-0.34388592839241,0
69160,-0.343471586704254,0
69270,-0.344507396221161,0
69380,-0.34388592839241,0
69490,-0.344093084335327,0
69600,-0.342642962932587,0
69710,-0.34388592839241,0
69820,-0.34388592839241,0
69930,-0.343471586704254,0
70040,-0.342642962932587,0
70140,-0.34388592839241,0
70250,-0.34388592839241,0
70360,-0.343678742647171,0
70470,-0.343678742647171,0
70580,-0.344507396221161,0
70690,-0.34305727481842,0
70800,-0.344714552164078,0
70910,-0.344300240278244,0
71020,-0.343471586704254,0
71130,-0.343678742647171,0
71240,-0.342642962932587,0
71350,-0.343678742647171,0
71450,-0.343678742647171,0
71560,-0.343678742647171,0
71670,-0.34388592839241,0
71780,-0.344714552164078,0
71890,-0.34388592839241,0
72000,-0.344093084335327,0
72110,-0.344300240278244,0
72220,-0.344507396221161,0
72330,-0.344093084335327,0
72440,-0.343678742647171,0
72550,-0.344093084335327,0
72660,-0.342642962932587,0
72770,-0.344093084335327,0
72870,-0.344507396221161,0
72980,-0.344300240278244,0
73090,-0.343471586704254,0
73200,-0.344093084335327,0
73310,-0.342850118875504,0
73420,-0.343678742647171,0
73530,-0.343678742647171,0
73640,-0.344921708106995,0
73750,-0.34388592839241,0
73860,-0.344093084335327,0
73970,-0.344507396221161,0
74080,-0.343471586704254,0
74180,-0.343471586704254,0
74290,-0.343471586704254,0
74400,-0.343471586704254,0
74510,-0.342642962932587,0
74620,-0.343678742647171,0
74730,-0.343471586704254,0
74840,-0.343471586704254,0
74950,-0.343678742647171,0
75060,-0.345336049795151,0
75170,-0.34388592839241,0
75280,-0.34388592839241,0
75390,-0.344507396221161,0
75500,-0.34305727481842,0
75600,-0.344507396221161,0
75710,-0.344921708106995,0
75820,-0.344300240278244,0
75930,-0.34305727481842,0
76040,-0.344093084335327,0
76150,-0.343264430761337,0
76260,-0.342642962932587,0
76370,-0.344300240278244,0
76480,-0.343471586704254,0
76590,-0.343678742647171,0
76700,-0.343678742647171,0
76810,-0.344300240278244,0
76910,-0.344507396221161,0
77020,-0.343471586704254,0
77130,-0.344093084335327,0
77240,-0.343678742647171,0
77350,-0.344093084335327,0
77460,-0.344093084335327,0
77570,-0.343678742647171,0
77680,-0.343471586704254,0
77790,-0.343471586704254,0
77900,-0.34388592839241,0
78010,-0.34388592839241,0
78120,-0.34305727481842,0
78230,-0.344507396221161,0
78330,-0.344714552164078,0
78440,-0.34305727481842,0
78550,-0.342642962932587,0
78660,-0.344093084335327,0
78770,-0.344300240278244,0
78880,-0.343264430761337,0
78990,-0.343264430761337,0
79100,-0.343264430761337,0
79210,-0.343678742647171,0
79320,-0.343471586704254,0
79430,-0.342850118875504,0
79540,-0.34388592839241,0
79640,-0.344093084335327,0
79750,-0.343678742647171,0
79860,-0.34388592839241,0
79970,-0.345543205738068,0
80080,-0.34388592839241,0
80190,-0.343678742647171,0
80300,-0.34388592839241,0
80410,-0.342642962932587,0
80520,-0.344093084335327,0
80630,-0.343264430761337,0
80740,-0.344093084335327,0
80850,-0.34388592839241,0
80960,-0.343471586704254,0
81060,-0.344507396221161,0
81170,-0.344507396221161,0
81280,-0.343471586704254,0
81390,-0.344300240278244,0
81500,-0.343471586704254,0
81610,-0.343471586704254,0
81720,-0.344300240278244,0
81830,-0.344093084335327,0
81940,-0.342642962932587,0
82050,-0.344507396221161,0
82160,-0.343471586704254,0
82270,-0.343678742647171,0
82370,-0.34305727481842,0
82480,-0.34305727481842,0
82590,-0.34388592839241,0
82700,-0.343471586704254,0
82810,-0.343678742647171,0
82920,-0.34388592839241,0
83030,-0.342642962932587,0
83140,-0.344300240278244,0
83250,-0.343471586704254,0
83360,-0.344093084335327,0
83470,-0.34305727481842,0
83580,-0.34388592839241,0
83690,-0.344093084335327,0
83790,-0.34388592839241,0
83900,-0.344714552164078,0
84010,-0.343678742647171,0
84120,-0.343678742647171,0
84230,-0.343264430761337,0
84340,-0.344714552164078,0
84450,-0.344507396221161,0
84560,-0.34305727481842,0
84670,-0.344093084335327,0
84780,-0.34388592839241,0
84890,-0.344093084335327,0
85000,-0.344507396221161,0
85100,-0.343471586704254,0
85210,-0.34388592839241,0
85320,-0.344093084335327,0
85430,-0.343471586704254,0
85540,-0.34388592839241,0
85650,-0.343678742647171,0
85760,-0.344300240278244,0
85870,-0.343471586704254,0
85980,-0.34388592839241,0
86090,-0.343264430761337,0
86200,-0.344093084335327,0
86310,-0.344093084335327,0
86420,-0.342642962932587,0
86520,-0.34305727481842,0
86630,-0.344300240278244,0
86740,-0.344093084335327,0
86850,-0.344093084335327,0
86960,-0.343678742647171,0
87070,-0.343678742647171,0
87180,-0.343264430761337,0
87290,-0.343471586704254,0
87400,-0.344093084335327,0
87510,-0.343678742647171,0
87620,-0.34388592839241,0
87730,-0.343678742647171,0
87830,-0.34388592839241,0
87940,-0.344507396221161,0
88050,-0.344300240278244,0
88160,-0.344093084335327,0
88270,-0.344300240278244,0
88380,-0.34243580698967,0
88490,-0.342642962932587,0
88600,-0.344300240278244,0
88710,-0.344507396221161,0
88820,-0.34305727481842,0
88930,-0.342850118875504,0
89040,-0.344714552164078,0
89150,-0.344093084335327,0
89250,-0.344714552164078,0
89360,-0.343264430761337,0
89470,-0.344093084335327,0
89580,-0.344507396221161,0
89690,-0.343264430761337,0
89800,-0.344093084335327,0
89910,-0.343471586704254,0
90020,-0.34305727481842,0
90130,-0.344921708106995,0
90240,-0.343264430761337,0
90350,-0.343264430761337,0
90460,-0.344507396221161,0
90560,-0.344507396221161,0
90670,-0.344714552164078,0
90780,-0.344507396221161,0
90890,-0.343678742647171,0
91000,-0.344714552164078,0
91110,-0.344714552164078,0
91220,-0.343264430761337,0
91330,-0.343264430761337,0
91440,-0.343264430761337,0
91550,-0.344300240278244,0
91660,-0.34388592839241,0
91770,-0.344093084335327,0
91880,-0.342642962932587,0
91980,-0.34388592839241,0
92090,-0.343471586704254,0
92200,-0.343471586704254,0
92310,-0.344300240278244,0
92420,-0.344507396221161,0
92530,-0.344300240278244,0
92640,-0.34305727481842,0
92750,-0.343678742647171,0
92860,-0.343264430761337,0
92970,-0.343471586704254,0
93080,-0.343678742647171,0
93190,-0.343471586704254,0
93290,-0.344714552164078,0
93400,-0.34305727481842,0
93510,-0.343471586704254,0
93620,-0.34388592839241,0
93730,-0.344921708106995,0
93840,-0.343678742647171,0
93950,-0.344714552164078,0
94060,-0.344714552164078,0
94170,-0.344507396221161,0
94280,-0.344093084335327,0
94390,-0.342850118875504,0
94500,-0.34388592839241,0
94610,-0.34388592839241,0
94710,-0.344300240278244,0
94820,-0.34388592839241,0
94930,-0.34243580698967,0
95040,-0.344507396221161,0
95150,-0.343471586704254,0
95260,-0.34305727481842,0
95370,-0.344300240278244,0
95480,-0.34388592839241,0
95590,-0.343471586704254,0
95700,-0.343678742647171,0
95810,-0.343264430761337,0
95920,-0.344300240278244,0
96020,-0.343471586704254,0
96130,-0.344093084335327,0
96240,-0.344093084335327,0
96350,-0.344714552164078,0
96460,-0.344507396221161,0
96570,-0.343264430761337,0
96680,-0.34388592839241,0
96790,-0.344714552164078,0
96900,-0.342850118875504,0
97010,-0.344300240278244,0
97120,-0.342642962932587,0
97230,-0.343678742647171,0
97340,-0.34305727481842,0
97440,-0.34388592839241,0
97550,-0.34388592839241,0
97660,-0.343471586704254,0
97770,-0.343471586704254,0
97880,-0.343264430761337,0
97990,-0.343678742647171,0
98100,-0.344714552164078,0
98210,-0.344300240278244,0
98320,-0.34305727481842,0
98430,-0.343471586704254,0
98540,-0.34305727481842,0
98650,-0.344300240278244,0
98760,-0.344093084335327,0
98860,-0.344093084335327,0
98970,-0.343471586704254,0
99080,-0.34388592839241,0
99190,-0.344300240278244,0
99300,-0.344093084335327,0
99410,-0.343678742647171,0
99520,-0.343471586704254,0
99630,-0.344714552164078,0
99740,-0.343471586704254,0
99850,-0.344507396221161,0
99960,-0.344093084335327,0
100070,-0.34388592839241,0
100170,-0.344300240278244,0
100280,-0.344093084335327,0
100390,-0.343471586704254,0
100500,-0.343471586704254,0
100610,-0.344507396221161,0
100720,-0.344093084335327,0
100830,-0.344093084335327,0
100940,-0.344093084335327,0
101050,-0.343264430761337,0
101160,-0.343471586704254,0
101270,-0.344093084335327,0
101380,-0.343678742647171,0
101490,-0.343264430761337,0
101590,-0.343678742647171,0
101700,-0.34388592839241,0
101810,-0.343471586704254,0
101920,-0.343678742647171,0
102030,-0.34305727481842,0
102140,-0.34388592839241,0
102250,-0.345128864049912,0
102360,-0.344093084335327,0
102470,-0.342850118875504,0
102580,-0.34388592839241,0
102690,-0.343264430761337,0
102800,-0.344300240278244,0
102900,-0.34243580698967,0
103010,-0.343678742647171,0
103120,-0.343678742647171,0
103230,-0.344093084335327,0
103340,-0.344507396221161,0
103450,-0.343678742647171,0
103560,-0.343678742647171,0
103670,-0.34305727481842,0
103780,-0.344093084335327,0
103890,-0.34243580698967,0
104000,-0.34388592839241,0
104110,-0.344507396221161,0
104220,-0.343471586704254,0
104320,-0.34388592839241,0
104430,-0.343264430761337,0
104540,-0.34388592839241,0
104650,-0.343678742647171,0
104760,-0.342642962932587,0
104870,-0.344714552164078,0
104980,-0.34305727481842,0
105090,-0.343471586704254,0
105200,-0.344714552164078,0
105310,-0.34305727481842,0
105420,-0.344300240278244,0
105530,-0.343678742647171,0
105630,-0.344300240278244,0
105740,-0.343471586704254,0
105850,-0.343264430761337,0
105960,-0.34388592839241,0
106070,-0.343471586704254,0
106180,-0.34388592839241,0
106290,-0.34388592839241,0
106400,-0.343471586704254,0
106510,-0.344300240278244,0
106620,-0.343678742647171,0
106730,-0.34305727481842,0
106840,-0.342850118875504,0
106950,-0.343678742647171,0
107050,-0.34388592839241,0
107160,-0.34305727481842,0
107270,-0.344300240278244,0
107380,-0.344093084335327,0
107490,-0.342850118875504,0
107600,-0.344300240278244,0
107710,-0.34388592839241,0
107820,-0.34388592839241,0
107930,-0.344714552164078,0
108040,-0.34305727481842,0
108150,-0.34305727481842,0
108260,-0.345128864049912,0
108360,-0.344300240278244,0
108470,-0.344507396221161,0
108580,-0.343678742647171,0
108690,-0.344300240278244,0
108800,-0.343264430761337,0
108910,-0.344300240278244,0
109020,-0.34388592839241,0
109130,-0.34305727481842,0
109240,-0.344093084335327,0
109350,-0.343678742647171,0
109460,-0.343471586704254,0
109570,-0.34305727481842,0
109680,-0.343471586704254,0
109780,-0.343264430761337,0
109890,-0.344093084335327,0
110000,-0.34388592839241,0
110110,-0.34388592839241,0
110220,-0.343678742647171,0
110330,-0.342850118875504,0
110440,-0.34388592839241,0
110550,-0.344093084335327,0
110660,-0.343678742647171,0
110770,-0.343264430761337,0
110880,-0.34243580698967,0
110990,-0.34388592839241,0
111090,-0.343471586704254,0
111200,-0.344300240278244,0
111310,-0.34160715341568,0
111420,-0.343471586704254,0
111530,-0.343678742647171,0
111640,-0.343264430761337,0
111750,-0.344507396221161,0
111860,-0.344714552164078,0
111970,-0.342850118875504,0
112080,-0.344093084335327,0
112190,-0.342642962932587,0
112300,-0.34388592839241,0
112410,-0.344300240278244,0
112510,-0.343678742647171,0
112620,-0.344093084335327,0
112730,-0.343471586704254,0
112840,-0.344921708106995,0
112950,-0.34388592839241,0
113060,-0.343471586704254,0
113170,-0.344093084335327,0
113280,-0.343471586704254,0
113390,-0.343471586704254,0
113500,-0.34388592839241,0
113610,-0.34388592839241,0
113720,-0.343678742647171,0
113820,-0.344714552164078,0
113930,-0.342850118875504,0
114040,-0.34388592839241,0
114150,-0.34305727481842,0
114260,-0.34388592839241,0
114370,-0.343264430761337,0
114480,-0.343678742647171,0
114590,-0.342021465301514,0
114700,-0.343678742647171,0
114810,-0.344300240278244,0
114920,-0.344507396221161,0
115030,-0.344714552164078,0
115140,-0.343678742647171,0
115240,-0.344507396221161,0
115350,-0.344300240278244,0
115460,-0.342850118875504,0
115570,-0.344093084335327,0
115680,-0.344093084335327,0
115790,-0.34305727481842,0
115900,-0.34388592839241,0
116010,-0.344093084335327,0
116120,-0.344507396221161,0
116230,-0.343678742647171,0
116340,-0.344714552164078,0
116450,-0.342642962932587,0
116550,-0.343678742647171,0
116660,-0.343471586704254,0
116770,-0.343264430761337,0
116880,-0.344507396221161,0
116990,-0.34243580698967,0
117100,-0.344093084335327,0
117210,-0.344714552164078,0
117320,-0.344507396221161,0
117430,-0.343678742647171,0
117540,-0.344507396221161,0
117650,-0.344507396221161,0
117760,-0.344300240278244,0
117870,-0.343471586704254,0
117970,-0.343264430761337,0
118080,-0.34243580698967,0
118190,-0.343678742647171,0
118300,-0.34388592839241,0
118410,-0.343678742647171,0
118520,-0.344921708106995,0
118630,-0.344093084335327,0
118740,-0.343471586704254,0
118850,-0.344300240278244,0
118960,-0.343471586704254,0
119070,-0.343471586704254,0
119180,-0.344300240278244,0
119280,-0.344093084335327,0
119390,-0.344714552164078,0
119500,-0.343678742647171,0
119610,-0.344300240278244,0
119720,-0.34388592839241,0
119830,-0.34388592839241,0
119940,-0.344507396221161,0
120050,-0.34305727481842,0
120160,-0.342642962932587,0
120270,-0.344921708106995,0
120380,-0.343471586704254,0
120490,-0.34388592839241,0
120600,-0.344507396221161,0
120700,-0.344300240278244,0
120810,-0.344300240278244,0
120920,-0.342850118875504,0
121030,-0.344093084335327,0
121140,-0.343678742647171,0
121250,-0.343678742647171,0
121360,-0.344093084335327,0
121470,-0.34243580698967,0
121580,-0.344300240278244,0
121690,-0.344507396221161,0
121800,-0.344714552164078,0
121910,-0.344507396221161,0
122010,-0.343678742647171,0
122120,-0.344093084335327,0
122230,-0.34243580698967,0
122340,-0.344300240278244,0
122450,-0.343471586704254,0
122560,-0.344921708106995,0
122670,-0.343264430761337,0
122780,-0.344300240278244,0
122890,-0.342850118875504,0
123000,-0.344093084335327,0
123110,-0.343678742647171,0
123220,-0.343264430761337,0
123330,-0.343678742647171,0
123430,-0.343678742647171,0
123540,-0.342642962932587,0
123650,-0.344714552164078,0
123760,-0.341814309358597,0
123870,-0.343471586704254,0
123980,-0.343264430761337,0
124090,-0.343471586704254,0
124200,-0.34388592839241,0
124310,-0.343678742647171,0
124420,-0.34388592839241,0
124530,-0.344507396221161,0
124640,-0.343471586704254,0
124740,-0.344300240278244,0
124850,-0.343678742647171,0
124960,-0.344093084335327,0
125070,-0.344921708106995,0
125180,-0.342642962932587,0
125290,-0.343471586704254,0
125400,-0.343471586704254,0
125510,-0.344507396221161,0
125620,-0.344093084335327,0
125730,-0.344714552164078,0
125840,-0.343471586704254,0
125950,-0.343678742647171,0
126060,-0.344093084335327,0
126160,-0.342850118875504,0
126270,-0.344300240278244,0
126380,-0.344507396221161,0
126490,-0.344507396221161,0
126600,-0.34388592839241,0
126710,-0.343471586704254,0
126820,-0.344300240278244,0
126930,-0.34243580698967,0
127040,-0.343471586704254,0
127150,-0.34388592839241,0
127260,-0.343678742647171,0
127370,-0.342850118875504,0
127470,-0.344921708106995,0
127580,-0.342642962932587,0
127690,-0.342850118875504,0
127800,-0.343678742647171,0
127910,-0.344921708106995,0
128020,-0.34388592839241,0
128130,-0.343471586704254,0
128240,-0.343678742647171,0
128350,-0.342228621244431,0
128460,-0.344093084335327,0
128570,-0.343471586704254,0
128680,-0.344714552164078,0
128790,-0.343471586704254,0
128890,-0.343471586704254,0
129000,-0.344507396221161,0
129110,-0.343264430761337,0
129220,-0.34388592839241,0
129330,-0.344714552164078,0
129440,-0.344714552164078,0
129550,-0.343264430761337,0
129660,-0.343471586704254,0
129770,-0.34388592839241,0
129880,-0.344093084335327,0
129990,-0.343471586704254,0
130100,-0.344093084335327,0
130200,-0.344714552164078,0
130310,-0.342850118875504,0
130420,-0.34243580698967,0
130530,-0.344300240278244,0
130640,-0.343678742647171,0
130750,-0.343471586704254,0
130860,-0.342850118875504,0
130970,-0.343264430761337,0
131080,-0.344093084335327,0
131190,-0.344093084335327,0
131300,-0.343264430761337,0
131410,-0.342850118875504,0
131520,-0.344093084335327,0
131620,-0.344300240278244,0
131730,-0.345128864049912,0
131840,-0.344300240278244,0
131950,-0.344714552164078,0
132060,-0.342850118875504,0
132170,-0.34388592839241,0
132280,-0.34388592839241,0
132390,-0.343471586704254,0
132500,-0.344093084335327,0
132610,-0.344300240278244,0
132720,-0.343471586704254,0
132830,-0.34388592839241,0
132930,-0.345336049795151,0
133040,-0.343471586704254,0
133150,-0.344093084335327,0
133260,-0.344093084335327,0
133370,-0.344093084335327,0
133480,-0.343678742647171,0
133590,-0.344300240278244,0
133700,-0.344093084335327,0
133810,-0.344507396221161,0
133920,-0.344093084335327,0
134030,-0.344300240278244,0
134140,-0.343678742647171,0
134250,-0.343678742647171,0
134350,-0.342642962932587,0
134460,-0.344921708106995,0
134570,-0.34305727481842,0
134680,-0.34305727481842,0
134790,-0.342850118875504,0
134900,-0.342228621244431,0
135010,-0.343678742647171,0
135120,-0.34305727481842,0
135230,-0.342850118875504,0
135340,-0.344300240278244,0
135450,-0.342850118875504,0
135560,-0.344093084335327,0
135660,-0.343264430761337,0
135770,-0.344507396221161,0
135880,-0.344093084335327,0
135990,-0.344507396221161,0
136100,-0.344300240278244,0
136210,-0.34305727481842,0
136320,-0.34388592839241,0
136430,-0.343678742647171,0
136540,-0.344093084335327,0
136650,-0.344300240278244,0
136760,-0.343471586704254,0
136870,-0.344093084335327,0
136980,-0.344300240278244,0
137080,-0.344714552164078,0
137190,-0.342642962932587,0
137300,-0.343471586704254,0
137410,-0.344093084335327,0
137520,-0.344093084335327,0
137630,-0.344300240278244,0
137740,-0.344507396221161,0
137850,-0.344921708106995,0
137960,-0.343471586704254,0
138070,-0.344714552164078,0
138180,-0.34305727481842,0
138290,-0.344093084335327,0
138390,-0.343678742647171,0
138500,-0.342021465301514,0
138610,-0.342228621244431,0
138720,-0.344921708106995,0
138830,-0.34388592839241,0
138940,-0.34388592839241,0
139050,-0.344714552164078,0
139160,-0.34388592839241,0
139270,-0.343471586704254,0
139380,-0.34243580698967,0
139490,-0.344507396221161,0
139600,-0.34388592839241,0
139710,-0.34243580698967,0
139810,-0.343678742647171,0
139920,-0.344714552164078,0
140030,-0.342642962932587,0
140140,-0.34305727481842,0
140250,-0.343264430761337,0
140360,-0.342850118875504,0
140470,-0.34305727481842,0
140580,-0.34388592839241,0
140690,-0.34388592839241,0
140800,-0.343678742647171,0
140910,-0.344093084335327,0
141020,-0.34305727481842,0
141120,-0.345128864049912,0
141230,-0.343471586704254,0
141340,-0.344714552164078,0
141450,-0.344300240278244,0
141560,-0.343471586704254,0
141670,-0.344093084335327,0
141780,-0.343678742647171,0
141890,-0.344507396221161,0
142000,-0.343678742647171,0
142110,-0.343471586704254,0
142220,-0.34388592839241,0
142330,-0.34388592839241,0
142440,-0.34305727481842,0
142540,-0.343264430761337,0
142650,-0.344300240278244,0
142760,-0.34243580698967,0
142870,-0.343471586704254,0
142980,-0.344093084335327,0
143090,-0.344714552164078,0
143200,-0.342850118875504,0
143310,-0.34388592839241,0
143420,-0.344300240278244,0
143530,-0.34388592839241,0
143640,-0.344093084335327,0
143750,-0.34305727481842,0
143850,-0.34388592839241,0
143960,-0.34305727481842,0
144070,-0.344714552164078,0
144180,-0.344093084335327,0
144290,-0.34388592839241,0
144400,-0.343678742647171,0
144510,-0.34388592839241,0
144620,-0.344714552164078,0
144730,-0.34305727481842,0
144840,-0.34388592839241,0
144950,-0.34388592839241,0
145060,-0.344507396221161,0
145170,-0.344093084335327,0
145270,-0.344714552164078,0
145380,-0.344300240278244,0
145490,-0.34305727481842,0
145600,-0.34305727481842,0
145710,-0.343471586704254,0
145820,-0.344507396221161,0
145930,-0.344093084335327,0
146040,-0.34388592839241,0
146150,-0.343471586704254,0
146260,-0.342850118875504,0
146370,-0.343471586704254,0
146480,-0.344300240278244,0
146580,-0.343678742647171,0
146690,-0.343264430761337,0
146800,-0.343471586704254,0
146910,-0.342850118875504,0
147020,-0.343264430761337,0
147130,-0.344507396221161,0
147240,-0.344507396221161,0
147350,-0.343471586704254,0
147460,-0.34388592839241,0
147570,-0.343264430761337,0
147680,-0.34388592839241,0
147790,-0.344093084335327,0
147900,-0.344714552164078,0
148000,-0.343471586704254,0
148110,-0.343678742647171,0
148220,-0.343678742647171,0
148330,-0.343264430761337,0
148440,-0.343678742647171,0
148550,-0.342850118875504,0
148660,-0.344300240278244,0
148770,-0.34305727481842,0
148880,-0.344507396221161,0
148990,-0.34388592839241,0
149100,-0.343264430761337,0
149210,-0.343471586704254,0
149310,-0.344921708106995,0
149420,-0.344921708106995,0
149530,-0.345128864049912,0
149640,-0.344300240278244,0
149750,-0.343678742647171,0
149860,-0.343471586704254,0
149970,-0.343471586704254,0
150080,-0.344093084335327,0
150190,-0.344300240278244,0
150300,-0.344507396221161,0
150410,-0.343471586704254,0
150520,-0.343678742647171,0
150630,-0.343471586704254,0
150730,-0.34305727481842,0
150840,-0.344300240278244,0
150950,-0.344093084335327,0
151060,-0.343264430761337,0
151170,-0.34388592839241,0
151280,-0.344921708106995,0
151390,-0.344300240278244,0
151500,-0.344921708106995,0
151610,-0.34388592839241,0
151720,-0.344300240278244,0
151830,-0.343264430761337,0
151940,-0.34388592839241,0
152040,-0.34388592839241,0
152150,-0.343471586704254,0
152260,-0.342642962932587,0
152370,-0.34388592839241,0
152480,-0.344507396221161,0
152590,-0.344093084335327,0
152700,-0.343264430761337,0
152810,-0.34388592839241,0
152920,-0.344507396221161,0
153030,-0.344507396221161,0
153140,-0.34388592839241,0
153250,-0.342850118875504,0
153360,-0.34243580698967,0
153460,-0.344093084335327,0
153570,-0.344714552164078,0
153680,-0.344714552164078,0
153790,-0.344714552164078,0
153900,-0.344093084335327,0
154010,-0.344093084335327,0
154120,-0.343678742647171,0
154230,-0.34305727481842,0
154340,-0.344714552164078,0
154450,-0.344300240278244,0
154560,-0.342850118875504,0
154670,-0.34305727481842,0
154770,-0.342850118875504,0
154880,-0.343471586704254,0
154990,-0.344093084335327,0
155100,-0.343471586704254,0
155210,-0.343678742647171,0
155320,-0.343678742647171,0
155430,-0.344093084335327,0
155540,-0.34388592839241,0
155650,-0.344093084335327,0
155760,-0.344093084335327,0
155870,-0.344093084335327,0
155980,-0.344093084335327,0
156090,-0.344093084335327,0
156190,-0.344300240278244,0
156300,-0.344093084335327,0
156410,-0.344093084335327,0
156520,-0.343678742647171,0
156630,-0.343471586704254,0
156740,-0.344093084335327,0
156850,-0.344507396221161,0
156960,-0.343471586704254,0
157070,-0.342850118875504,0
157180,-0.344507396221161,0
157290,-0.343678742647171,0
157400,-0.343471586704254,0
157500,-0.342642962932587,0
157610,-0.344507396221161,0
157720,-0.344507396221161,0
157830,-0.342850118875504,0
157940,-0.34388592839241,0
158050,-0.344093084335327,0
158160,-0.343678742647171,0
158270,-0.344507396221161,0
158380,-0.343471586704254,0
158490,-0.342850118875504,0
158600,-0.345128864049912,0
158710,-0.34388592839241,0
158820,-0.343678742647171,0
158920,-0.345128864049912,0
159030,-0.343471586704254,0
159140,-0.343678742647171,0
159250,-0.343678742647171,0
159360,-0.343678742647171,0
159470,-0.344714552164078,0
159580,-0.343264430761337,0
159690,-0.345128864049912,0
159800,-0.343678742647171,0
159910,-0.344714552164078,0
160020,-0.343264430761337,0
160130,-0.343471586704254,0
160230,-0.34305727481842,0
160340,-0.343678742647171,0
160450,-0.344921708106995,0
160560,-0.343264430761337,0
160670,-0.344714552164078,0
160780,-0.344300240278244,0
160890,-0.343264430761337,0
161000,-0.343471586704254,0
161110,-0.344507396221161,0
161220,-0.34305727481842,0
161330,-0.344921708106995,0
161440,-0.343264430761337,0
161550,-0.343264430761337,0
161650,-0.343264430761337,0
161760,-0.34243580698967,0
161870,-0.344507396221161,0
161980,-0.342850118875504,0
162090,-0.34305727481842,0
162200,-0.343678742647171,0
162310,-0.344714552164078,0
162420,-0.34388592839241,0
162530,-0.343678742647171,0
162640,-0.344093084335327,0
162750,-0.343264430761337,0
162860,-0.344093084335327,0
162960,-0.342850118875504,0
163070,-0.343264430761337,0
163180,-0.34388592839241,0
163290,-0.343264430761337,0
163400,-0.34305727481842,0
163510,-0.344507396221161,0
163620,-0.344093084335327,0
163730,-0.344714552164078,0
163840,-0.34388592839241,0
163950,-0.343471586704254,0
164060,-0.344507396221161,0
164170,-0.344300240278244,0
164280,-0.344300240278244,0
164380,-0.344714552164078,0
164490,-0.343264430761337,0
164600,-0.34388592839241,0
164710,-0.343471586704254,0
164820,-0.343471586704254,0
164930,-0.343678742647171,0
165040,-0.344507396221161,0
165150,-0.344507396221161,0
165260,-0.344507396221161,0
165370,-0.344507396221161,0
165480,-0.34243580698967,0
165590,-0.343471586704254,0
165690,-0.343471586704254,0
165800,-0.344093084335327,0
165910,-0.34388592839241,0
166020,-0.343471586704254,0
166130,-0.343678742647171,0
166240,-0.344093084335327,0
166350,-0.34388592839241,0
166460,-0.343264430761337,0
166570,-0.34388592839241,0
166680,-0.343471586704254,0
166790,-0.343678742647171,0
166900,-0.344300240278244,0
167010,-0.343678742647171,0
167110,-0.343471586704254,0
167220,-0.343471586704254,0
167330,-0.34388592839241,0
167440,-0.345128864049912,0
167550,-0.344300240278244,0
167660,-0.344093084335327,0
167770,-0.345750361680985,0
167880,-0.34305727481842,0
167990,-0.34305727481842,0
168100,-0.342642962932587,0
168210,-0.344300240278244,0
168320,-0.343471586704254,0
168420,-0.343678742647171,0
168530,-0.343471586704254,0
168640,-0.344507396221161,0
168750,-0.34305727481842,0
168860,-0.344093084335327,0
168970,-0.345128864049912,0
169080,-0.345543205738068,0
169190,-0.343264430761337,0
169300,-0.344714552164078,0
169410,-0.343471586704254,0
169520,-0.34388592839241,0
169630,-0.343471586704254,0
169740,-0.343471586704254,0
169840,-0.344507396221161,0
169950,-0.343471586704254,0
170060,-0.343264430761337,0
170170,-0.342850118875504,0
170280,-0.343471586704254,0
170390,-0.343264430761337,0
170500,-0.344921708106995,0
170610,-0.344507396221161,0
170720,-0.343471586704254,0
170830,-0.34243580698967,0
170940,-0.34388592839241,0
171050,-0.343471586704254,0
171150,-0.342642962932587,0
171260,-0.343471586704254,0
171370,-0.344093084335327,0
171480,-0.344507396221161,0
171590,-0.344507396221161,0
171700,-0.344093084335327,0
171810,-0.344093084335327,0
171920,-0.343471586704254,0
172030,-0.343678742647171,0
172140,-0.344093084335327,0
172250,-0.34305727481842,0
172360,-0.343264430761337,0
172470,-0.343678742647171,0
172570,-0.344507396221161,0
172680,-0.343471586704254,0
172790,-0.343471586704254,0
172900,-0.344300240278244,0
173010,-0.344093084335327,0
173120,-0.34388592839241,0
173230,-0.343264430761337,0
173340,-0.34305727481842,0
173450,-0.343264430761337,0
173560,-0.344093084335327,0
173670,-0.344714552164078,0
173780,-0.344093084335327,0
173880,-0.343471586704254,0
173990,-0.342850118875504,0
174100,-0.344921708106995,0
174210,-0.343471586704254,0
174320,-0.34388592839241,0
174430,-0.343678742647171,0
174540,-0.343264430761337,0
174650,-0.343678742647171,0
174760,-0.344300240278244,0
174870,-0.344093084335327,0
174980,-0.344093084335327,0
175090,-0.343471586704254,0
175200,-0.34305727481842,0
175300,-0.343678742647171,0
175410,-0.342850118875504,0
175520,-0.343471586704254,0
175630,-0.344093084335327,0
175740,-0.344921708106995,0
175850,-0.34388592839241,0
175960,-0.34388592839241,0
176070,-0.344300240278244,0
176180,-0.343264430761337,0
176290,-0.344093084335327,0
176400,-0.343471586704254,0
176510,-0.344507396221161,0
176610,-0.344093084335327,0
176720,-0.343471586704254,0
176830,-0.34305727481842,0
176940,-0.344300240278244,0
177050,-0.34388592839241,0
177160,-0.34388592839241,0
177270,-0.34388592839241,0
177380,-0.343264430761337,0
177490,-0.344093084335327,0
177600,-0.344300240278244,0
177710,-0.344093084335327,0
177820,-0.344921708106995,0
177930,-0.34388592839241,0
178030,-0.343264430761337,0
178140,-0.343678742647171,0
178250,-0.34305727481842,0
178360,-0.343471586704254,0
178470,-0.34243580698967,0
178580,-0.34305727481842,0
178690,-0.344093084335327,0
178800,-0.343471586704254,0
178910,-0.343678742647171,0
179020,-0.343264430761337,0
179130,-0.344300240278244,0
179240,-0.342850118875504,0
179350,-0.343678742647171,0
179450,-0.344300240278244,0
179560,-0.344714552164078,0
179670,-0.343264430761337,0
179780,-0.344093084335327,0
179890,-0.343471586704254,0
180000,-0.342850118875504,0
180110,-0.344093084335327,0
180220,-0.344507396221161,0
180330,-0.343678742647171,0
180440,-0.344300240278244,0
180550,-0.344507396221161,0
180660,-0.343471586704254,0
180760,-0.344300240278244,0
180870,-0.343264430761337,0
180980,-0.344093084335327,0
181090,-0.344507396221161,0
181200,-0.34305727481842,0
181310,-0.343678742647171,0
181420,-0.344300240278244,0
181530,-0.343264430761337,0
181640,-0.344300240278244,0
181750,-0.344300240278244,0
181860,-0.34388592839241,0
181970,-0.342642962932587,0
182080,-0.343471586704254,0
182180,-0.342642962932587,0
182290,-0.344093084335327,0
182400,-0.34388592839241,0
182510,-0.343678742647171,0
182620,-0.343264430761337,0
182730,-0.342642962932587,0
182840,-0.343471586704254,0
182950,-0.344300240278244,0
183060,-0.344300240278244,0
183170,-0.344093084335327,0
183280,-0.34388592839241,0
183390,-0.34305727481842,0
183490,-0.34305727481842,0
183600,-0.343471586704254,0
183710,-0.344507396221161,0
183820,-0.34305727481842,0
183930,-0.344093084335327,0
184040,-0.34388592839241,0
184150,-0.344093084335327,0
184260,-0.344714552164078,0
184370,-0.345128864049912,0
184480,-0.344300240278244,0
184590,-0.34388592839241,0
184700,-0.343471586704254,0
184810,-0.344714552164078,0
184910,-0.343264430761337,0
185020,-0.344093084335327,0
185130,-0.344300240278244,0
185240,-0.344507396221161,0
185350,-0.343678742647171,0
185460,-0.342021465301514,0
185570,-0.343678742647171,0
185680,-0.34388592839241,0
185790,-0.343264430761337,0
185900,-0.34388592839241,0
186010,-0.34243580698967,0
186120,-0.342850118875504,0
186220,-0.344093084335327,0
186330,-0.343471586704254,0
186440,-0.343471586704254,0
186550,-0.344507396221161,0
186660,-0.344507396221161,0
186770,-0.344093084335327,0
186880,-0.342228621244431,0
186990,-0.34305727481842,0
187100,-0.345336049795151,0
187210,-0.342642962932587,0
187320,-0.344093084335327,0
187430,-0.343678742647171,0
187540,-0.34305727481842,0
187640,-0.343471586704254,0
187750,-0.342850118875504,0
187860,-0.344507396221161,0
187970,-0.34388592839241,0
188080,-0.344507396221161,0
188190,-0.34388592839241,0
188300,-0.343471586704254,0
188410,-0.343678742647171,0
188520,-0.344300240278244,0
188630,-0.344300240278244,0
188740,-0.342850118875504,0
188850,-0.344300240278244,0
188950,-0.344093084335327,0
189060,-0.343678742647171,0
189170,-0.344300240278244,0
189280,-0.34305727481842,0
189390,-0.344507396221161,0
189500,-0.343471586704254,0
189610,-0.344507396221161,0
189720,-0.344507396221161,0
189830,-0.343264430761337,0
189940,-0.344093084335327,0
190050,-0.34388592839241,0
190160,-0.343264430761337,0
190270,-0.34388592839241,0
190370,-0.344714552164078,0
190480,-0.34388592839241,0
190590,-0.344300240278244,0
190700,-0.34388592839241,0
190810,-0.345128864049912,0
190920,-0.343264430761337,0
191030,-0.342850118875504,0
191140,-0.344714552164078,0
191250,-0.344714552164078,0
191360,-0.344093084335327,0
191470,-0.343678742647171,0
191580,-0.34388592839241,0
191680,-0.343264430761337,0
191790,-0.343471586704254,0
191900,-0.344714552164078,0
192010,-0.343264430761337,0
192120,-0.344093084335327,0
192230,-0.343471586704254,0
192340,-0.34388592839241,0
192450,-0.344093084335327,0
192560,-0.345128864049912,0
192670,-0.345750361680985,0
192780,-0.34388592839241,0
192890,-0.344300240278244,0
193000,-0.34388592839241,0
193100,-0.343471586704254,0
193210,-0.343471586704254,0
193320,-0.34388592839241,0
193430,-0.34388592839241,0
193540,-0.344300240278244,0
193650,-0.343264430761337,0
193760,-0.343264430761337,0
193870,-0.343471586704254,0
193980,-0.345128864049912,0
194090,-0.342850118875504,0
194200,-0.344300240278244,0
194310,-0.343471586704254,0
194410,-0.344300240278244,0
194520,-0.343264430761337,0
194630,-0.344300240278244,0
194740,-0.342642962932587,0
194850,-0.343264430761337,0
194960,-0.34305727481842,0
195070,-0.343471586704254,0
195180,-0.343264430761337,0
195290,-0.344714552164078,0
195400,-0.34388592839241,0
195510,-0.343264430761337,0
195620,-0.34305727481842,0
195730,-0.343264430761337,0
195830,-0.343678742647171,0
195940,-0.343264430761337,0
196050,-0.343678742647171,0
196160,-0.344714552164078,0
196270,-0.343264430761337,0
196380,-0.343264430761337,0
196490,-0.344093084335327,0
196600,-0.342850118875504,0
196710,-0.343471586704254,0
196820,-0.34388592839241,0
196930,-0.343678742647171,0
197040,-0.343678742647171,0
197140,-0.342642962932587,0
197250,-0.343264430761337,0
197360,-0.343264430761337,0
197470,-0.344300240278244,0
197580,-0.343678742647171,0
197690,-0.343471586704254,0
197800,-0.343471586704254,0
197910,-0.34388592839241,0
198020,-0.34305727481842,0
198130,-0.343471586704254,0
198240,-0.344507396221161,0
198350,-0.344300240278244,0
198460,-0.342850118875504,0
198560,-0.34388592839241,0
198670,-0.343678742647171,0
198780,-0.343678742647171,0
198890,-0.344093084335327,0
199000,-0.343678742647171,0
199110,-0.34305727481842,0
199220,-0.344507396221161,0
199330,-0.343264430761337,0
199440,-0.342850118875504,0
199550,-0.343264430761337,0
199660,-0.343264430761337,0
199770,-0.344093084335327,0
199870,-0.343678742647171,0
199980,-0.344714552164078,0
200090,-0.34305727481842,0
200200,-0.34388592839241,0
200310,-0.344714552164078,0
200420,-0.343678742647171,0
200530,-0.34388592839241,0
200640,-0.344507396221161,0
200750,-0.343264430761337,0
200860,-0.343471586704254,0
200970,-0.342642962932587,0
201080,-0.343678742647171,0
201190,-0.34388592839241,0
201290,-0.342642962932587,0
201400,-0.34388592839241,0
201510,-0.343678742647171,0
201620,-0.343471586704254,0
201730,-0.345750361680985,0
201840,-0.343471586704254,0
201950,-0.34243580698967,0
202060,-0.34243580698967,0
202170,-0.344093084335327,0
202280,-0.343471586704254,0
202390,-0.34305727481842,0
202500,-0.34388592839241,0
202600,-0.34388592839241,0
202710,-0.34388592839241,0
202820,-0.344300240278244,0
202930,-0.34388592839241,0
203040,-0.34388592839241,0
203150,-0.343471586704254,0
203260,-0.342228621244431,0
203370,-0.343471586704254,0
203480,-0.34388592839241,0
203590,-0.344093084335327,0
203700,-0.343678742647171,0
203810,-0.342850118875504,0
203920,-0.344300240278244,0
204020,-0.344714552164078,0
204130,-0.342642962932587,0
204240,-0.344093084335327,0
204350,-0.344093084335327,0
204460,-0.343471586704254,0
204570,-0.343264430761337,0
204680,-0.344093084335327,0
204790,-0.343264430761337,0
204900,-0.343264430761337,0
205010,-0.344714552164078,0
205120,-0.343471586704254,0
205230,-0.34388592839241,0
205330,-0.343471586704254,0
205440,-0.343678742647171,0
205550,-0.343264430761337,0
205660,-0.342021465301514,0
205770,-0.343678742647171,0
205880,-0.343264430761337,0
205990,-0.344300240278244,0
206100,-0.344507396221161,0
206210,-0.34388592839241,0
206320,-0.343264430761337,0
206430,-0.345336049795151,0
206540,-0.343264430761337,0
206650,-0.343264430761337,0
206750,-0.34305727481842,0
206860,-0.344507396221161,0
206970,-0.343678742647171,0
207080,-0.343471586704254,0
207190,-0.34388592839241,0
207300,-0.344507396221161,0
207410,-0.343471586704254,0
207520,-0.34305727481842,0
207630,-0.344921708106995,0
207740,-0.343264430761337,0
207850,-0.344300240278244,0
207960,-0.342850118875504,0
208060,-0.342850118875504,0
208170,-0.343678742647171,0
208280,-0.34388592839241,0
208390,-0.343471586704254,0
208500,-0.343678742647171,0
208610,-0.343264430761337,0
208720,-0.343678742647171,0
208830,-0.343264430761337,0
208940,-0.343471586704254,0
209050,-0.342850118875504,0
209160,-0.34388592839241,0
209270,-0.344300240278244,0
209380,-0.344300240278244,0
209480,-0.34305727481842,0
209590,-0.343264430761337,0
209700,-0.343678742647171,0
209810,-0.34388592839241,0
209920,-0.342642962932587,0
210030,-0.343678742647171,0
210140,-0.343678742647171,0
210250,-0.344300240278244,0
210360,-0.34388592839241,0
210470,-0.34388592839241,0
210580,-0.342642962932587,0
210690,-0.343678742647171,0
210790,-0.344093084335327,0
210900,-0.343471586704254,0
211010,-0.343678742647171,0
211120,-0.344093084335327,0
211230,-0.343471586704254,0
211340,-0.343471586704254,0
211450,-0.343678742647171,0
211560,-0.342850118875504,0
211670,-0.343264430761337,0
211780,-0.344093084335327,0
211890,-0.343264430761337,0
212000,-0.345336049795151,0
212110,-0.34388592839241,0
212210,-0.34388592839241,0
212320,-0.343471586704254,0
212430,-0.34388592839241,0
212540,-0.343471586704254,0
212650,-0.344093084335327,0
212760,-0.345336049795151,0
212870,-0.344300240278244,0
212980,-0.345336049795151,0
213090,-0.344714552164078,0
213200,-0.344093084335327,0
213310,-0.343471586704254,0
213420,-0.343264430761337,0
213520,-0.344507396221161,0
213630,-0.344093084335327,0
213740,-0.344300240278244,0
213850,-0.34388592839241,0
213960,-0.34388592839241,0
214070,-0.343264430761337,0
214180,-0.344921708106995,0
214290,-0.344921708106995,0
214400,-0.342850118875504,0
214510,-0.34388592839241,0
214620,-0.343471586704254,0
214730,-0.344300240278244,0
214840,-0.343678742647171,0
214940,-0.344093084335327,0
215050,-0.342850118875504,0
215160,-0.343471586704254,0
215270,-0.344714552164078,0
215380,-0.34305727481842,0
215490,-0.344093084335327,0
215600,-0.344507396221161,0
215710,-0.343678742647171,0
215820,-0.344507396221161,0
215930,-0.345128864049912,0
216040,-0.343264430761337,0
216150,-0.344300240278244,0
216250,-0.344093084335327,0
216360,-0.344714552164078,0
216470,-0.343471586704254,0
216580,-0.342642962932587,0
216690,-0.344093084335327,0
216800,-0.342850118875504,0
216910,-0.344093084335327,0
217020,-0.34388592839241,0
217130,-0.34243580698967,0
217240,-0.344507396221161,0
217350,-0.343471586704254,0
217460,-0.34388592839241,0
217570,-0.344300240278244,0
217670,-0.344921708106995,0
217780,-0.34305727481842,0
217890,-0.34388592839241,0
218000,-0.344507396221161,0
218110,-0.344507396221161,0
218220,-0.344714552164078,0
218330,-0.344714552164078,0
218440,-0.343264430761337,0
218550,-0.343471586704254,0
218660,-0.342850118875504,0
218770,-0.344507396221161,0
218880,-0.343471586704254,0
218980,-0.344093084335327,0
219090,-0.344300240278244,0
219200,-0.344300240278244,0
219310,-0.343678742647171,0
219420,-0.342850118875504,0
219530,-0.344300240278244,0
219640,-0.344507396221161,0
219750,-0.342850118875504,0
219860,-0.344093084335327,0
219970,-0.343678742647171,0
220080,-0.343264430761337,0
220190,-0.343264430761337,0
220300,-0.342850118875504,0
220400,-0.345128864049912,0
220510,-0.344300240278244,0
220620,-0.344714552164078,0
220730,-0.342642962932587,0
220840,-0.343678742647171,0
220950,-0.344714552164078,0
221060,-0.344093084335327,0
221170,-0.344300240278244,0
221280,-0.344300240278244,0
221390,-0.344507396221161,0
221500,-0.34388592839241,0
221610,-0.344093084335327,0
221710,-0.344300240278244,0
221820,-0.345128864049912,0
221930,-0.34388592839241,0
222040,-0.34305727481842,0
222150,-0.343471586704254,0
222260,-0.343678742647171,0
222370,-0.34305727481842,0
222480,-0.342850118875504,0
222590,-0.343678742647171,0
222700,-0.343264430761337,0
222810,-0.343471586704254,0
222920,-0.34243580698967,0
223030,-0.344093084335327,0
223130,-0.342642962932587,0
223240,-0.34388592839241,0
223350,-0.344093084335327,0
223460,-0.342642962932587,0
223570,-0.34388592839241,0
223680,-0.343471586704254,0
223790,-0.343678742647171,0
223900,-0.344300240278244,0
224010,-0.343471586704254,0
224120,-0.343264430761337,0
224230,-0.344093084335327,0
224340,-0.344507396221161,0
224440,-0.343471586704254,0
224550,-0.343471586704254,0
224660,-0.342642962932587,0
224770,-0.343264430761337,0
224880,-0.344093084335327,0
224990,-0.34305727481842,0
225100,-0.34305727481842,0
225210,-0.34388592839241,0
225320,-0.344714552164078,0
225430,-0.343678742647171,0
225540,-0.343678742647171,0
225650,-0.343264430761337,0
225760,-0.34388592839241,0
225860,-0.343678742647171,0
225970,-0.343264430761337,0
226080,-0.343678742647171,0
226190,-0.344714552164078,0
226300,-0.343678742647171,0
226410,-0.342850118875504,0
226520,-0.344507396221161,0
226630,-0.344300240278244,0
226740,-0.343264430761337,0
226850,-0.344300240278244,0
226960,-0.343678742647171,0
227070,-0.34388592839241,0
227170,-0.344300240278244,0
227280,-0.344714552164078,0
227390,-0.343471586704254,0
227500,-0.344093084335327,0
227610,-0.343471586704254,0
227720,-0.342642962932587,0
227830,-0.343678742647171,0
227940,-0.344507396221161,0
228050,-0.345336049795151,0
228160,-0.344093084335327,0
228270,-0.343471586704254,0
228380,-0.34305727481842,0
228490,-0.34388592839241,0
228590,-0.342850118875504,0
228700,-0.343678742647171,0
228810,-0.343471586704254,0
228920,-0.343471586704254,0
229030,-0.34305727481842,0
229140,-0.343471586704254,0
229250,-0.343471586704254,0
229360,-0.343471586704254,0
229470,-0.343264430761337,0
229580,-0.34388592839241,0
229690,-0.34305727481842,0
229800,-0.344300240278244,0
229900,-0.34388592839241,0
230010,-0.343678742647171,0
230120,-0.343678742647171,0
230230,-0.34388592839241,0
230340,-0.343264430761337,0
230450,-0.34388592839241,0
230560,-0.344714552164078,0
230670,-0.343264430761337,0
230780,-0.34243580698967,0
230890,-0.345336049795151,0
231000,-0.344921708106995,0
231110,-0.344093084335327,0
231220,-0.343471586704254,0
231320,-0.34388592839241,0
231430,-0.343678742647171,0
231540,-0.343264430761337,0
231650,-0.344714552164078,0
231760,-0.344507396221161,0
231870,-0.34305727481842,0
231980,-0.34305727481842,0
232090,-0.34305727481842,0
232200,-0.345543205738068,0
232310,-0.343264430761337,0
232420,-0.344921708106995,0
232530,-0.343471586704254,0
232630,-0.344093084335327,0
232740,-0.343264430761337,0
232850,-0.34305727481842,0
232960,-0.344300240278244,0
233070,-0.344714552164078,0
233180,-0.343678742647171,0
233290,-0.34388592839241,0
233400,-0.344714552164078,0
233510,-0.342642962932587,0
233620,-0.343264430761337,0
233730,-0.343264430761337,0
233840,-0.343678742647171,0
233950,-0.344921708106995,0
234050,-0.34388592839241,0
234160,-0.343678742647171,0
234270,-0.344714552164078,0
234380,-0.342850118875504,0
234490,-0.343678742647171,0
234600,-0.345336049795151,0
234710,-0.344300240278244,0
234820,-0.343264430761337,0
234930,-0.344093084335327,0
235040,-0.343264430761337,0
235150,-0.343471586704254,0
235260,-0.345128864049912,0
235360,-0.343678742647171,0
235470,-0.342642962932587,0
235580,-0.342850118875504,0
235690,-0.34388592839241,0
235800,-0.343264430761337,0
235910,-0.344507396221161,0
236020,-0.344507396221161,0
236130,-0.34388592839241,0
236240,-0.344300240278244,0
236350,-0.343264430761337,0
236460,-0.343471586704254,0
236570,-0.344714552164078,0
236680,-0.34388592839241,0
236780,-0.344507396221161,0
236890,-0.34388592839241,0
237000,-0.344507396221161,0
237110,-0.34243580698967,0
237220,-0.34305727481842,0
237330,-0.343678742647171,0
237440,-0.344300240278244,0
237550,-0.342850118875504,0
237660,-0.34305727481842,0
237770,-0.343264430761337,0
237880,-0.34305727481842,0
237990,-0.343264430761337,0
238090,-0.34305727481842,0
238200,-0.34305727481842,0
238310,-0.344921708106995,0
238420,-0.343678742647171,0
238530,-0.343678742647171,0
238640,-0.343471586704254,0
238750,-0.344300240278244,0
238860,-0.342642962932587,0
238970,-0.344300240278244,0
239080,-0.343678742647171,0
239190,-0.342850118875504,0
239300,-0.343678742647171,0
239410,-0.344093084335327,0
239510,-0.343471586704254,0
239620,-0.342642962932587,0
239730,-0.344093084335327,0
239840,-0.34388592839241,0
239950,-0.344300240278244,0
240060,-0.343471586704254,0
240170,-0.344300240278244,0
240280,-0.342850118875504,0
240390,-0.343471586704254,0
240500,-0.34388592839241,0
240610,-0.344093084335327,0
240720,-0.343471586704254,0
240820,-0.34305727481842,0
240930,-0.344714552164078,0
241040,-0.344507396221161,0
241150,-0.343678742647171,0
241260,-0.344300240278244,0
241370,-0.34305727481842,0
241480,-0.34388592839241,0
241590,-0.344093084335327,0
241700,-0.34388592839241,0
241810,-0.343471586704254,0
241920,-0.34305727481842,0
242030,-0.344093084335327,0
242140,-0.343264430761337,0
242240,-0.34388592839241,0
242350,-0.343264430761337,0
242460,-0.343678742647171,0
242570,-0.344507396221161,0
242680,-0.343678742647171,0
242790,-0.34305727481842,0
242900,-0.343678742647171,0
243010,-0.34305727481842,0
243120,-0.343264430761337,0
243230,-0.34305727481842,0
243340,-0.344300240278244,0
243450,-0.343678742647171,0
243550,-0.34388592839241,0
243660,-0.344093084335327,0
243770,-0.345336049795151,0
243880,-0.34305727481842,0
243990,-0.343264430761337,0
244100,-0.344093084335327,0
244210,-0.344300240278244,0
244320,-0.343471586704254,0
244430,-0.343678742647171,0
244540,-0.344300240278244,0
244650,-0.343678742647171,0
244760,-0.344921708106995,0
244870,-0.34388592839241,0
244970,-0.34388592839241,0
245080,-0.343471586704254,0
245190,-0.343471586704254,0
245300,-0.343471586704254,0
245410,-0.344507396221161,0
245520,-0.344507396221161,0
245630,-0.34305727481842,0
245740,-0.342850118875504,0
245850,-0.34388592839241,0
245960,-0.34388592839241,0
246070,-0.345128864049912,0
246180,-0.343678742647171,0
246280,-0.343471586704254,0
246390,-0.343471586704254,0
246500,-0.34388592839241,0
246610,-0.34243580698967,0
246720,-0.344093084335327,0
246830,-0.343471586704254,0
246940,-0.344300240278244,0
247050,-0.344921708106995,0
247160,-0.34305727481842,0
247270,-0.343471586704254,0
247380,-0.344921708106995,0
247490,-0.342021465301514,0
247600,-0.34388592839241,0
247700,-0.344714552164078,0
247810,-0.34388592839241,0
247920,-0.344093084335327,0
248030,-0.34388592839241,0
248140,-0.344921708106995,0
248250,-0.343471586704254,0
248360,-0.344300240278244,0
248470,-0.343678742647171,0
248580,-0.344507396221161,0
248690,-0.343471586704254,0
248800,-0.344507396221161,0
248910,-0.344093084335327,0
249010,-0.344300240278244,0
249120,-0.344921708106995,0
249230,-0.344921708106995,0
249340,-0.34305727481842,0
249450,-0.34388592839241,0
249560,-0.343678742647171,0
249670,-0.343678742647171,0
249780,-0.343264430761337,0
249890,-0.34388592839241,0
250000,-0.343471586704254,0
250110,-0.344093084335327,0
250220,-0.343471586704254,0
250330,-0.343471586704254,0
250430,-0.343678742647171,0
250540,-0.342642962932587,0
250650,-0.343264430761337,0
250760,-0.343678742647171,0
250870,-0.344714552164078,0
250980,-0.343678742647171,0
251090,-0.34388592839241,0
251200,-0.342850118875504,0
251310,-0.34305727481842,0
251420,-0.344300240278244,0
251530,-0.343678742647171,0
251640,-0.344093084335327,0
251740,-0.344300240278244,0
251850,-0.344093084335327,0
251960,-0.342642962932587,0
252070,-0.344507396221161,0
252180,-0.344714552164078,0
252290,-0.343678742647171,0
252400,-0.34388592839241,0
252510,-0.34305727481842,0
252620,-0.344300240278244,0
252730,-0.344093084335327,0
252840,-0.343678742647171,0
252950,-0.344300240278244,0
253060,-0.34305727481842,0
253160,-0.343471586704254,0
253270,-0.34388592839241,0
253380,-0.344093084335327,0
253490,-0.343264430761337,0
253600,-0.34388592839241,0
253710,-0.344093084335327,0
253820,-0.344507396221161,0
253930,-0.344093084335327,0
254040,-0.343678742647171,0
254150,-0.342850118875504,0
254260,-0.344300240278244,0
254370,-0.342850118875504,0
254470,-0.34243580698967,0
254580,-0.34243580698967,0
254690,-0.344300240278244,0
254800,-0.345128864049912,0
254910,-0.344507396221161,0
255020,-0.344714552164078,0
255130,-0.343678742647171,0
255240,-0.34305727481842,0
255350,-0.34388592839241,0
255460,-0.344714552164078,0
255570,-0.34388592839241,0
255680,-0.343678742647171,0
255790,-0.34305727481842,0
255890,-0.343678742647171,0
256000,-0.34305727481842,0
256110,-0.344921708106995,0
256220,-0.344507396221161,0
256330,-0.344714552164078,0
256440,-0.343678742647171,0
256550,-0.344300240278244,0
256660,-0.344714552164078,0
256770,-0.343471586704254,0
256880,-0.345128864049912,0
256990,-0.344507396221161,0
257100,-0.343471586704254,0
257210,-0.344093084335327,0
257310,-0.34243580698967,0
257420,-0.343678742647171,0
257530,-0.34160715341568,0
257640,-0.343264430761337,0
257750,-0.343678742647171,0
257860,-0.342850118875504,0
257970,-0.344300240278244,0
258080,-0.343264430761337,0
258190,-0.34388592839241,0
258300,-0.344714552164078,0
258410,-0.34305727481842,0
258520,-0.343264430761337,0
258620,-0.344300240278244,0
258730,-0.34305727481842,0
258840,-0.345750361680985,0
258950,-0.342642962932587,0
259060,-0.34388592839241,0
259170,-0.344093084335327,0
259280,-0.344093084335327,0
259390,-0.34388592839241,0
259500,-0.344507396221161,0
259610,-0.344507396221161,0
259720,-0.34305727481842,0
259830,-0.344093084335327,0
259940,-0.344714552164078,0
260040,-0.344714552164078,0
260150,-0.34243580698967,0
260260,-0.34388592839241,0
260370,-0.344093084335327,0
260480,-0.343471586704254,0
260590,-0.344093084335327,0
260700,-0.343678742647171,0
260810,-0.343678742647171,0
260920,-0.343264430761337,0
261030,-0.344093084335327,0
261140,-0.343264430761337,0
261250,-0.344921708106995,0
261350,-0.343264430761337,0
261460,-0.344300240278244,0
261570,-0.344714552164078,0
261680,-0.343678742647171,0
261790,-0.343471586704254,0
261900,-0.343471586704254,0
262010,-0.343678742647171,0
262120,-0.343471586704254,0
262230,-0.343471586704254,0
262340,-0.344093084335327,0
262450,-0.343471586704254,0
262560,-0.343471586704254,0
262670,-0.34305727481842,0
262770,-0.344714552164078,0
262880,-0.34388592839241,0
262990,-0.343264430761337,0
263100,-0.34388592839241,0
263210,-0.34305727481842,0
263320,-0.343471586704254,0
263430,-0.342850118875504,0
263540,-0.344507396221161,0
263650,-0.34388592839241,0
263760,-0.343264430761337,0
263870,-0.34305727481842,0
263980,-0.34388592839241,0
264080,-0.344507396221161,0
264190,-0.344300240278244,0
264300,-0.344714552164078,0
264410,-0.343471586704254,0
264520,-0.343678742647171,0
264630,-0.343678742647171,0
264740,-0.343471586704254,0
264850,-0.34305727481842,0
264960,-0.342850118875504,0
265070,-0.343678742647171,0
265180,-0.34305727481842,0
265290,-0.344507396221161,0
265400,-0.344921708106995,0
265500,-0.344300240278244,0
265610,-0.344300240278244,0
265720,-0.34388592839241,0
265830,-0.34388592839241,0
265940,-0.34388592839241,0
266050,-0.344507396221161,0
266160,-0.342642962932587,0
266270,-0.344921708106995,0
266380,-0.343678742647171,0
266490,-0.34388592839241,0
266600,-0.343678742647171,0
266710,-0.343678742647171,0
266810,-0.344300240278244,0
266920,-0.344300240278244,0
267030,-0.343471586704254,0
267140,-0.34305727481842,0
267250,-0.344093084335327,0
267360,-0.344300240278244,0
267470,-0.343471586704254,0
267580,-0.343471586704254,0
267690,-0.344507396221161,0
267800,-0.34388592839241,0
267910,-0.342642962932587,0
268020,-0.34388592839241,0
268130,-0.343678742647171,0
268230,-0.344093084335327,0
268340,-0.343678742647171,0
268450,-0.345128864049912,0
268560,-0.343678742647171,0
268670,-0.34388592839241,0
268780,-0.343471586704254,0
268890,-0.343678742647171,0
269000,-0.343264430761337,0
269110,-0.343471586704254,0
269220,-0.344507396221161,0
269330,-0.343678742647171,0
269440,-0.344093084335327,0
269540,-0.34388592839241,0
269650,-0.345128864049912,0
269760,-0.344300240278244,0
269870,-0.344714552164078,0
269980,-0.34388592839241,0
270090,-0.34388592839241,0
270200,-0.343471586704254,0
270310,-0.344300240278244,0
270420,-0.34388592839241,0
270530,-0.343678742647171,0
270640,-0.343471586704254,0
270750,-0.343471586704254,0
270860,-0.343471586704254,0
270960,-0.34388592839241,0
271070,-0.343471586704254,0
271180,-0.345128864049912,0
271290,-0.343471586704254,0
271400,-0.34388592839241,0
271510,-0.34305727481842,0
271620,-0.343678742647171,0
271730,-0.344714552164078,0
271840,-0.343678742647171,0
271950,-0.344921708106995,0
272060,-0.34388592839241,0
272170,-0.34388592839241,0
272270,-0.34388592839241,0
272380,-0.344507396221161,0
272490,-0.344507396221161,0
272600,-0.344714552164078,0
272710,-0.343678742647171,0
272820,-0.34388592839241,0
272930,-0.344093084335327,0
273040,-0.34305727481842,0
273150,-0.343264430761337,0
273260,-0.343678742647171,0
273370,-0.343471586704254,0
273480,-0.34305727481842,0
273590,-0.344300240278244,0
273690,-0.343471586704254,0
273800,-0.343471586704254,0
273910,-0.342642962932587,0
274020,-0.34388592839241,0
274130,-0.343264430761337,0
274240,-0.343471586704254,0
274350,-0.344093084335327,0
274460,-0.343678742647171,0
274570,-0.343678742647171,0
274680,-0.344507396221161,0
274790,-0.343471586704254,0
274900,-0.344507396221161,0
275000,-0.343678742647171,0
275110,-0.344300240278244,0
275220,-0.343264430761337,0
275330,-0.342642962932587,0
275440,-0.343678742647171,0
275550,-0.342850118875504,0
275660,-0.34305727481842,0
275770,-0.344507396221161,0
275880,-0.342642962932587,0
275990,-0.34305727481842,0
276100,-0.344093084335327,0
276210,-0.344300240278244,0
276320,-0.343678742647171,0
276420,-0.344300240278244,0
276530,-0.344300240278244,0
276640,-0.34388592839241,0
276750,-0.34388592839241,0
276860,-0.344300240278244,0
276970,-0.34388592839241,0
277080,-0.345128864049912,0
277190,-0.343678742647171,0
277300,-0.343678742647171,0
277410,-0.344093084335327,0
277520,-0.343264430761337,0
277630,-0.343471586704254,0
277730,-0.342850118875504,0
277840,-0.343264430761337,0
277950,-0.343471586704254,0
278060,-0.343678742647171,0
278170,-0.344507396221161,0
278280,-0.34305727481842,0
278390,-0.343678742647171,0
278500,-0.344507396221161,0
278610,-0.343264430761337,0
278720,-0.342228621244431,0
278830,-0.344300240278244,0
278940,-0.344714552164078,0
279050,-0.343264430761337,0
279150,-0.342850118875504,0
279260,-0.343264430761337,0
279370,-0.342850118875504,0
279480,-0.34305727481842,0
279590,-0.34388592839241,0
279700,-0.343678742647171,0
279810,-0.34388592839241,0
279920,-0.343471586704254,0
280030,-0.344300240278244,0
280140,-0.343678742647171,0
280250,-0.342850118875504,0
280360,-0.343264430761337,0
280460,-0.343678742647171,0
280570,-0.344093084335327,0
280680,-0.343678742647171,0
280790,-0.344507396221161,0
280900,-0.343678742647171,0
281010,-0.343471586704254,0
281120,-0.34305727481842,0
281230,-0.342850118875504,0
281340,-0.34388592839241,0
281450,-0.34388592839241,0
281560,-0.34305727481842,0
281670,-0.342850118875504,0
281780,-0.344300240278244,0
281880,-0.34305727481842,0
281990,-0.344300240278244,0
282100,-0.343471586704254,0
282210,-0.34305727481842,0
282320,-0.344093084335327,0
282430,-0.343678742647171,0
282540,-0.34305727481842,0
282650,-0.344093084335327,0
282760,-0.343471586704254,0
282870,-0.343471586704254,0
282980,-0.34388592839241,0
283090,-0.344093084335327,0
283190,-0.344507396221161,0
283300,-0.343471586704254,0
283410,-0.343471586704254,0
283520,-0.343471586704254,0
283630,-0.34243580698967,0
283740,-0.343471586704254,0
283850,-0.342642962932587,0
283960,-0.344093084335327,0
284070,-0.34305727481842,0
284180,-0.344300240278244,0
284290,-0.343264430761337,0
284400,-0.344714552164078,0
284510,-0.345128864049912,0
284610,-0.344093084335327,0
284720,-0.344093084335327,0
284830,-0.343264430761337,0
284940,-0.344093084335327,0
285050,-0.343264430761337,0
285160,-0.344507396221161,0
285270,-0.343471586704254,0
285380,-0.343678742647171,0
285490,-0.343471586704254,0
285600,-0.34388592839241,0
285710,-0.343471586704254,0
285820,-0.343264430761337,0
285920,-0.344300240278244,0
286030,-0.344507396221161,0
286140,-0.343678742647171,0
286250,-0.34388592839241,0
286360,-0.34305727481842,0
286470,-0.343471586704254,0
286580,-0.34388592839241,0
286690,-0.34388592839241,0
286800,-0.342642962932587,0
286910,-0.34305727481842,0
287020,-0.344507396221161,0
287130,-0.343264430761337,0
287240,-0.344507396221161,0
287340,-0.344921708106995,0
287450,-0.344921708106995,0
287560,-0.344093084335327,0
287670,-0.344093084335327,0
287780,-0.344921708106995,0
287890,-0.343678742647171,0
288000,-0.344507396221161,0
288110,-0.343678742647171,0
288220,-0.343471586704254,0
288330,-0.34388592839241,0
288440,-0.34388592839241,0
288550,-0.343471586704254,0
288650,-0.344300240278244,0
288760,-0.344300240278244,0
288870,-0.343471586704254,0
288980,-0.342228621244431,0
289090,-0.344714552164078,0
289200,-0.34388592839241,0
289310,-0.34388592839241,0
289420,-0.344093084335327,0
289530,-0.342642962932587,0
289640,-0.344093084335327,0
289750,-0.343264430761337,0
289860,-0.344714552164078,0
289970,-0.343264430761337,0
290070,-0.344093084335327,0
290180,-0.343264430761337,0
290290,-0.343264430761337,0
290400,-0.345128864049912,0
290510,-0.34305727481842,0
290620,-0.343678742647171,0
290730,-0.344300240278244,0
290840,-0.34305727481842,0
290950,-0.343471586704254,0
291060,-0.344507396221161,0
291170,-0.343471586704254,0
291280,-0.344300240278244,0
291380,-0.344300240278244,0
291490,-0.343678742647171,0
291600,-0.34388592839241,0
291710,-0.345128864049912,0
291820,-0.34388592839241,0
291930,-0.34388592839241,0
292040,-0.344507396221161,0
292150,-0.344300240278244,0
292260,-0.344300240278244,0
292370,-0.34305727481842,0
292480,-0.34305727481842,0
292590,-0.343264430761337,0
292700,-0.344300240278244,0
292800,-0.344300240278244,0
292910,-0.343264430761337,0
293020,-0.344714552164078,0
293130,-0.343264430761337,0
293240,-0.344714552164078,0
293350,-0.344507396221161,0
293460,-0.344507396221161,0
293570,-0.344093084335327,0
293680,-0.34388592839241,0
293790,-0.343264430761337,0
293900,-0.343471586704254,0
294010,-0.345128864049912,0
294110,-0.34305727481842,0
294220,-0.344093084335327,0
294330,-0.344507396221161,0
294440,-0.344300240278244,0
294550,-0.343471586704254,0
294660,-0.343678742647171,0
294770,-0.344093084335327,0
294880,-0.344093084335327,0
294990,-0.344300240278244,0
295100,-0.343264430761337,0
295210,-0.344093084335327,0
295320,-0.344093084335327,0
295430,-0.342642962932587,0
295530,-0.343678742647171,0
295640,-0.343264430761337,0
295750,-0.34388592839241,0
295860,-0.342642962932587,0
295970,-0.343678742647171,0
296080,-0.342642962932587,0
296190,-0.344093084335327,0
296300,-0.342228621244431,0
296410,-0.344507396221161,0
296520,-0.344093084335327,0
296630,-0.343471586704254,0
296740,-0.343678742647171,0
296840,-0.343264430761337,0
296950,-0.34388592839241,0
297060,-0.343471586704254,0
297170,-0.344300240278244,0
297280,-0.343471586704254,0
297390,-0.34388592839241,0
297500,-0.343471586704254,0
297610,-0.344714552164078,0
297720,-0.344714552164078,0
297830,-0.344507396221161,0
297940,-0.343678742647171,0
298050,-0.343678742647171,0
298160,-0.344093084335327,0
298260,-0.344714552164078,0
298370,-0.34305727481842,0
298480,-0.344507396221161,0
298590,-0.343471586704254,0
298700,-0.344300240278244,0
298810,-0.342850118875504,0
298920,-0.343678742647171,0
299030,-0.344507396221161,0
299140,-0.34388592839241,0
299250,-0.342850118875504,0
299360,-0.344093084335327,0
299470,-0.344714552164078,0
299570,-0.343471586704254,0
299680,-0.342850118875504,0
299790,-0.343678742647171,0
299900,-0.344093084335327,0
300010,-0.34388592839241,0
300120,-0.343678742647171,0
300230,-0.342642962932587,0
300340,-0.343678742647171,0
300450,-0.343678742647171,0
300560,-0.344300240278244,0
300670,-0.344507396221161,0
300780,-0.34388592839241,0
300890,-0.34388592839241,0
300990,-0.343471586704254,0
301100,-0.344300240278244,0
301210,-0.34305727481842,0
301320,-0.342642962932587,0
301430,-0.344714552164078,0
301540,-0.343678742647171,0
301650,-0.344507396221161,0
301760,-0.343678742647171,0
301870,-0.34388592839241,0
301980,-0.344507396221161,0
302090,-0.343264430761337,0
302200,-0.34305727481842,0
302300,-0.344714552164078,0
302410,-0.34305727481842,0
302520,-0.34388592839241,0
302630,-0.343678742647171,0
302740,-0.34388592839241,0
302850,-0.34305727481842,0
302960,-0.34305727481842,0
303070,-0.344300240278244,0
303180,-0.344093084335327,0
303290,-0.344507396221161,0
303400,-0.344921708106995,0
303510,-0.344507396221161,0
303620,-0.34305727481842,0
303720,-0.343471586704254,0
303830,-0.34305727481842,0
303940,-0.343678742647171,0
304050,-0.344300240278244,0
304160,-0.342642962932587,0
304270,-0.34388592839241,0
304380,-0.343471586704254,0
304490,-0.34388592839241,0
304600,-0.34305727481842,0
304710,-0.344300240278244,0
304820,-0.344507396221161,0
304930,-0.342850118875504,0
305030,-0.343678742647171,0
305140,-0.34388592839241,0
305250,-0.343264430761337,0
305360,-0.343264430761337,0
305470,-0.344300240278244,0
305580,-0.343471586704254,0
305690,-0.343471586704254,0
305800,-0.34388592839241,0
305910,-0.343471586704254,0
306020,-0.344507396221161,0
306130,-0.34388592839241,0
306240,-0.344507396221161,0
306350,-0.343471586704254,0
306450,-0.344093084335327,0
306560,-0.344093084335327,0
306670,-0.344300240278244,0
306780,-0.343471586704254,0
306890,-0.34305727481842,0
307000,-0.343471586704254,0
307110,-0.344921708106995,0
307220,-0.344714552164078,0
307330,-0.34305727481842,0
307440,-0.344507396221161,0
307550,-0.34388592839241,0
307660,-0.343264430761337,0
307760,-0.344300240278244,0
307870,-0.34305727481842,0
307980,-0.343678742647171,0
308090,-0.344507396221161,0
308200,-0.343471586704254,0
308310,-0.343471586704254,0
308420,-0.344714552164078,0
308530,-0.343471586704254,0
308640,-0.342642962932587,0
308750,-0.344921708106995,0
308860,-0.343471586704254,0
308970,-0.344300240278244,0
309080,-0.343471586704254,0
309180,-0.344300240278244,0
309290,-0.344300240278244,0
309400,-0.343678742647171,0
309510,-0.34305727481842,0
309620,-0.343264430761337,0
309730,-0.343471586704254,0
309840,-0.344093084335327,0
309950,-0.34305727481842,0
310060,-0.344714552164078,0
310170,-0.344714552164078,0
310280,-0.344714552164078,0
310390,-0.34305727481842,0
310490,-0.343471586704254,0
310600,-0.343264430761337,0
310710,-0.344507396221161,0
310820,-0.343678742647171,0
310930,-0.344507396221161,0
311040,-0.344093084335327,0
311150,-0.34388592839241,0
311260,-0.343678742647171,0
311370,-0.343471586704254,0
311480,-0.344093084335327,0
311590,-0.343678742647171,0
311700,-0.343471586704254,0
311810,-0.34388592839241,0
311910,-0.34388592839241,0
312020,-0.344921708106995,0
312130,-0.344507396221161,0
312240,-0.343471586704254,0
312350,-0.344093084335327,0
312460,-0.343471586704254,0
312570,-0.343471586704254,0
312680,-0.343264430761337,0
312790,-0.344093084335327,0
312900,-0.344714552164078,0
313010,-0.344714552164078,0
313120,-0.34388592839241,0
313220,-0.343678742647171,0
313330,-0.344921708106995,0
313440,-0.343678742647171,0
313550,-0.342642962932587,0
313660,-0.344093084335327,0
313770,-0.344714552164078,0
313880,-0.343471586704254,0
313990,-0.344300240278244,0
314100,-0.34305727481842,0
314210,-0.344507396221161,0
314320,-0.344714552164078,0
314430,-0.344093084335327,0
314540,-0.344507396221161,0
314640,-0.34388592839241,0
314750,-0.343264430761337,0
314860,-0.34388592839241,0
314970,-0.344300240278244,0
315080,-0.343678742647171,0
315190,-0.344093084335327,0
315300,-0.34305727481842,0
315410,-0.342228621244431,0
315520,-0.344714552164078,0
315630,-0.34305727481842,0
315740,-0.344714552164078,0
315850,-0.343678742647171,0
315950,-0.345128864049912,0
316060,-0.345128864049912,0
316170,-0.344300240278244,0
316280,-0.344507396221161,0
316390,-0.344300240278244,0
316500,-0.343264430761337,0
316610,-0.34388592839241,0
316720,-0.343678742647171,0
316830,-0.34388592839241,0
316940,-0.343678742647171,0
317050,-0.343678742647171,0
317160,-0.344921708106995,0
317270,-0.342850118875504,0
317370,-0.34305727481842,0
317480,-0.343471586704254,0
317590,-0.344300240278244,0
317700,-0.344714552164078,0
317810,-0.344093084335327,0
317920,-0.343678742647171,0
318030,-0.343264430761337,0
318140,-0.344093084335327,0
318250,-0.344507396221161,0
318360,-0.343471586704254,0
318470,-0.343264430761337,0
318580,-0.34243580698967,0
318680,-0.342850118875504,0
318790,-0.343471586704254,0
318900,-0.343678742647171,0
319010,-0.342642962932587,0
319120,-0.34243580698967,0
319230,-0.343264430761337,0
319340,-0.344714552164078,0
319450,-0.34388592839241,0
319560,-0.344714552164078,0
319670,-0.344507396221161,0
319780,-0.344300240278244,0
319890,-0.34388592839241,0
320000,-0.343471586704254,0
320100,-0.34388592839241,0
320210,-0.344300240278244,0
320320,-0.343264430761337,0
320430,-0.343471586704254,0
320540,-0.34388592839241,0
320650,-0.343678742647171,0
320760,-0.343264430761337,0
320870,-0.344507396221161,0
320980,-0.34388592839241,0
321090,-0.343678742647171,0
321200,-0.34388592839241,0
321310,-0.344714552164078,0
321410,-0.344300240278244,0
321520,-0.343264430761337,0
321630,-0.343264430761337,0
321740,-0.343264430761337,0
321850,-0.343471586704254,0
321960,-0.343264430761337,0
322070,-0.342850118875504,0
322180,-0.344300240278244,0
322290,-0.344300240278244,0
322400,-0.34305727481842,0
322510,-0.344507396221161,0
322620,-0.344093084335327,0
322730,-0.343678742647171,0
322830,-0.344300240278244,0
322940,-0.342850118875504,0
323050,-0.34388592839241,0
323160,-0.34388592839241,0
323270,-0.343264430761337,0
323380,-0.34305727481842,0
323490,-0.344507396221161,0
323600,-0.343471586704254,0
323710,-0.344300240278244,0
323820,-0.343471586704254,0
323930,-0.34388592839241,0
324040,-0.343264430761337,0
324140,-0.34305727481842,0
324250,-0.343264430761337,0
324360,-0.344921708106995,0
324470,-0.34243580698967,0
324580,-0.34388592839241,0
324690,-0.343264430761337,0
324800,-0.343471586704254,0
324910,-0.343264430761337,0
325020,-0.344093084335327,0
325130,-0.343264430761337,0
325240,-0.342850118875504,0
325350,-0.342642962932587,0
325460,-0.344300240278244,0
325560,-0.34305727481842,0
325670,-0.344507396221161,0
325780,-0.344300240278244,0
325890,-0.34305727481842,0
326000,-0.34388592839241,0
326110,-0.345336049795151,0
326220,-0.343264430761337,0
326330,-0.344300240278244,0
326440,-0.343678742647171,0
326550,-0.344714552164078,0
326660,-0.343678742647171,0
326770,-0.342642962932587,0
326870,-0.344300240278244,0
326980,-0.34388592839241,0
327090,-0.34243580698967,0
327200,-0.344093084335327,0
327310,-0.34388592839241,0
327420,-0.344093084335327,0
327530,-0.343678742647171,0
327640,-0.344507396221161,0
327750,-0.343264430761337,0
327860,-0.344507396221161,0
327970,-0.34388592839241,0
328080,-0.343264430761337,0
328190,-0.343678742647171,0
328290,-0.343264430761337,0
328400,-0.343678742647171,0
328510,-0.342850118875504,0
328620,-0.34388592839241,0
328730,-0.343678742647171,0
328840,-0.344093084335327,0
328950,-0.344300240278244,0
329060,-0.343678742647171,0
329170,-0.344300240278244,0
329280,-0.343678742647171,0
329390,-0.344093084335327,0
329500,-0.344093084335327,0
329600,-0.344921708106995,0
329710,-0.343678742647171,0
329820,-0.343264430761337,0
329930,-0.343471586704254,0
330040,-0.342850118875504,0
330150,-0.34305727481842,0
330260,-0.344714552164078,0
330370,-0.34305727481842,0
330480,-0.343264430761337,0
330590,-0.344714552164078,0
330700,-0.343264430761337,0
330810,-0.344093084335327,0
330920,-0.34305727481842,0
331020,-0.343264430761337,0
331130,-0.343264430761337,0
331240,-0.343471586704254,0
331350,-0.345128864049912,0
331460,-0.344300240278244,0
331570,-0.343471586704254,0
331680,-0.343471586704254,0
331790,-0.343264430761337,0
331900,-0.344714552164078,0
332010,-0.344714552164078,0
332120,-0.343264430761337,0
332230,-0.344714552164078,0
332330,-0.344093084335327,0
332440,-0.343471586704254,0
332550,-0.34388592839241,0
332660,-0.344921708106995,0
332770,-0.343471586704254,0
332880,-0.34388592839241,0
332990,-0.343264430761337,0
333100,-0.344300240278244,0
333210,-0.344093084335327,0
333320,-0.343678742647171,0
333430,-0.344093084335327,0
333540,-0.344093084335327,0
333650,-0.34388592839241,0
333750,-0.343678742647171,0
333860,-0.344300240278244,0
333970,-0.344300240278244,0
334080,-0.343264430761337,0
334190,-0.344093084335327,0
334300,-0.34305727481842,0
334410,-0.343264430761337,0
334520,-0.344714552164078,0
334630,-0.34388592839241,0
334740,-0.342850118875504,0
334850,-0.344093084335327,0
334960,-0.344093084335327,0
335060,-0.34305727481842,0
335170,-0.343264430761337,0
335280,-0.343471586704254,0
335390,-0.343678742647171,0
335500,-0.343264430761337,0
335610,-0.344714552164078,0
335720,-0.34388592839241,0
335830,-0.34388592839241,0
335940,-0.343471586704254,0
336050,-0.344507396221161,0
336160,-0.34388592839241,0
336270,-0.344300240278244,0
336380,-0.343678742647171,0
336480,-0.342850118875504,0
336590,-0.344300240278244,0
336700,-0.343264430761337,0
336810,-0.343471586704254,0
336920,-0.343678742647171,0
337030,-0.343678742647171,0
337140,-0.34388592839241,0
337250,-0.344093084335327,0
337360,-0.343471586704254,0
337470,-0.343678742647171,0
337580,-0.343471586704254,0
337690,-0.344093084335327,0
337800,-0.343264430761337,0
337900,-0.344093084335327,0
338010,-0.344507396221161,0
338120,-0.34388592839241,0
338230,-0.343264430761337,0
338340,-0.343678742647171,0
338450,-0.344300240278244,0
338560,-0.343471586704254,0
338670,-0.344507396221161,0
338780,-0.343471586704254,0
338890,-0.344714552164078,0
339000,-0.344300240278244,0
339110,-0.343264430761337,0
339210,-0.344300240278244,0
339320,-0.343471586704254,0
339430,-0.343678742647171,0
339540,-0.34388592839241,0
339650,-0.344300240278244,0
339760,-0.344093084335327,0
339870,-0.343678742647171,0
339980,-0.343264430761337,0
340090,-0.343264430761337,0
340200,-0.34305727481842,0
340310,-0.34305727481842,0
340420,-0.343678742647171,0
340530,-0.344093084335327,0
340630,-0.343264430761337,0
340740,-0.343264430761337,0
340850,-0.344714552164078,0
340960,-0.344093084335327,0
341070,-0.342850118875504,0
341180,-0.344093084335327,0
341290,-0.34388592839241,0
341400,-0.343264430761337,0
341510,-0.344507396221161,0
341620,-0.34388592839241,0
341730,-0.344921708106995,0
341840,-0.343264430761337,0
341940,-0.342642962932587,0
342050,-0.343678742647171,0
342160,-0.344300240278244,0
342270,-0.344093084335327,0
342380,-0.344093084335327,0
342490,-0.344507396221161,0
342600,-0.342642962932587,0
342710,-0.342850118875504,0
342820,-0.343264430761337,0
342930,-0.34388592839241,0
343040,-0.343264430761337,0
343150,-0.344300240278244,0
343260,-0.34388592839241,0
343360,-0.344300240278244,0
343470,-0.34305727481842,0
343580,-0.34388592839241,0
343690,-0.344300240278244,0
343800,-0.343471586704254,0
343910,-0.34305727481842,0
344020,-0.344714552164078,0
344130,-0.34388592839241,0
344240,-0.344093084335327,0
344350,-0.343471586704254,0
344460,-0.344921708106995,0
344570,-0.344093084335327,0
344670,-0.344093084335327,0
344780,-0.34388592839241,0
344890,-0.343264430761337,0
345000,-0.343264430761337,0
345110,-0.344300240278244,0
345220,-0.34388592839241,0
345330,-0.344507396221161,0
345440,-0.343264430761337,0
345550,-0.344093084335327,0
345660,-0.343471586704254,0
345770,-0.343678742647171,0
345880,-0.34388592839241,0
345990,-0.343678742647171,0
346090,-0.344093084335327,0
346200,-0.342228621244431,0
346310,-0.343678742647171,0
346420,-0.343678742647171,0
346530,-0.34388592839241,0
346640,-0.343678742647171,0
346750,-0.343264430761337,0
346860,-0.344714552164078,0
346970,-0.34388592839241,0
347080,-0.34305727481842,0
347190,-0.343264430761337,0
347300,-0.34388592839241,0
347400,-0.344093084335327,0
347510,-0.34388592839241,0
347620,-0.344921708106995,0
347730,-0.344300240278244,0
347840,-0.345336049795151,0
347950,-0.343264430761337,0
348060,-0.344093084335327,0
348170,-0.34388592839241,0
348280,-0.34305727481842,0
348390,-0.344093084335327,0
348500,-0.343678742647171,0
348610,-0.34305727481842,0
348720,-0.343678742647171,0
348820,-0.343471586704254,0
348930,-0.343471586704254,0
349040,-0.343264430761337,0
349150,-0.344300240278244,0
349260,-0.34305727481842,0
349370,-0.343678742647171,0
349480,-0.34388592839241,0
349590,-0.343264430761337,0
349700,-0.344507396221161,0
349810,-0.34388592839241,0
349920,-0.343678742647171,0
350030,-0.343678742647171,0
350130,-0.343264430761337,0
350240,-0.344300240278244,0
350350,-0.345336049795151,0
350460,-0.343264430761337,0
350570,-0.343678742647171,0
350680,-0.34388592839241,0
350790,-0.343471586704254,0
350900,-0.343678742647171,0
351010,-0.343471586704254,0
351120,-0.342642962932587,0
351230,-0.344093084335327,0
351340,-0.34388592839241,0
351450,-0.343678742647171,0
351550,-0.344921708106995,0
351660,-0.34388592839241,0
351770,-0.344300240278244,0
351880,-0.343264430761337,0
351990,-0.342642962932587,0
352100,-0.34388592839241,0
352210,-0.343471586704254,0
352320,-0.34388592839241,0
352430,-0.343678742647171,0
352540,-0.34305727481842,0
352650,-0.34305727481842,0
352760,-0.343678742647171,0
352870,-0.344507396221161,0
352970,-0.343264430761337,0
353080,-0.34388592839241,0
353190,-0.343678742647171,0
353300,-0.344300240278244,0
353410,-0.343678742647171,0
353520,-0.343471586704254,0
353630,-0.343678742647171,0
353740,-0.344300240278244,0
353850,-0.343264430761337,0
353960,-0.34388592839241,0
354070,-0.344300240278244,0
354180,-0.343264430761337,0
354280,-0.344507396221161,0
354390,-0.343678742647171,0
354500,-0.344093084335327,0
354610,-0.342642962932587,0
354720,-0.344300240278244,0
354830,-0.344714552164078,0
354940,-0.344300240278244,0
355050,-0.343471586704254,0
355160,-0.344300240278244,0
355270,-0.342642962932587,0
355380,-0.343264430761337,0
355490,-0.343264430761337,0
355590,-0.344714552164078,0
355700,-0.343471586704254,0
355810,-0.343471586704254,0
355920,-0.343678742647171,0
356030,-0.344093084335327,0
356140,-0.343471586704254,0
356250,-0.343678742647171,0
356360,-0.344300240278244,0
356470,-0.344507396221161,0
356580,-0.343678742647171,0
356690,-0.34388592839241,0
356800,-0.343678742647171,0
356910,-0.343471586704254,0
357010,-0.343678742647171,0
357120,-0.344921708106995,0
357230,-0.344093084335327,0
357340,-0.343471586704254,0
357450,-0.34388592839241,0
357560,-0.343264430761337,0
357670,-0.34243580698967,0
357780,-0.34388592839241,0
357890,-0.343264430761337,0
358000,-0.34388592839241,0
358110,-0.34388592839241,0
358220,-0.344093084335327,0
358320,-0.343678742647171,0
358430,-0.344921708106995,0
358540,-0.343678742647171,0
358650,-0.344300240278244,0
358760,-0.344921708106995,0
358870,-0.342642962932587,0
358980,-0.343678742647171,0
359090,-0.343264430761337,0
359200,-0.343471586704254,0
359310,-0.34388592839241,0
359420,-0.344507396221161,0
359530,-0.34388592839241,0
359640,-0.343471586704254,0
359740,-0.343678742647171,0
359850,-0.342850118875504,0
359960,-0.34388592839241,0
360070,-0.343471586704254,0
360180,-0.344093084335327,0
360290,-0.343678742647171,0
360400,-0.343678742647171,0
360510,-0.34388592839241,0
360620,-0.344714552164078,0
360730,-0.343471586704254,0
360840,-0.343471586704254,0
360950,-0.34388592839241,0
361050,-0.344507396221161,0
361160,-0.344300240278244,0
361270,-0.343471586704254,0
361380,-0.343264430761337,0
361490,-0.343678742647171,0
361600,-0.342642962932587,0
361710,-0.343471586704254,0
361820,-0.344714552164078,0
361930,-0.343678742647171,0
362040,-0.343264430761337,0
362150,-0.34388592839241,0
362260,-0.342642962932587,0
362370,-0.344300240278244,0
362470,-0.344300240278244,0
362580,-0.34388592839241,0
362690,-0.343471586704254,0
362800,-0.343471586704254,0
362910,-0.344507396221161,0
363020,-0.342850118875504,0
363130,-0.343678742647171,0
363240,-0.344300240278244,0
363350,-0.342228621244431,0
363460,-0.343264430761337,0
363570,-0.344093084335327,0
363680,-0.344714552164078,0
363780,-0.34388592839241,0
363890,-0.344093084335327,0
364000,-0.344507396221161,0
364110,-0.344093084335327,0
364220,-0.342850118875504,0
364330,-0.344093084335327,0
364440,-0.343678742647171,0
364550,-0.343264430761337,0
364660,-0.343471586704254,0
364770,-0.34305727481842,0
364880,-0.344300240278244,0
364990,-0.34305727481842,0
365100,-0.343471586704254,0
365200,-0.343471586704254,0
365310,-0.34388592839241,0
365420,-0.34388592839241,0
365530,-0.34388592839241,0
365640,-0.344093084335327,0
365750,-0.345128864049912,0
365860,-0.344300240278244,0
365970,-0.343471586704254,0
366080,-0.344507396221161,0
366190,-0.344921708106995,0
366300,-0.34388592839241,0
366410,-0.342850118875504,0
366510,-0.344300240278244,0
366620,-0.342850118875504,0
366730,-0.342850118875504,0
366840,-0.342642962932587,0
366950,-0.34305727481842,0
367060,-0.344300240278244,0
367170,-0.343471586704254,0
367280,-0.34388592839241,0
367390,-0.342850118875504,0
367500,-0.344300240278244,0
367610,-0.343471586704254,0
367720,-0.34305727481842,0
367830,-0.343678742647171,0
367930,-0.344300240278244,0
368040,-0.343264430761337,0
368150,-0.34388592839241,0
368260,-0.343471586704254,0
368370,-0.343678742647171,0
368480,-0.343264430761337,0
368590,-0.344300240278244,0
368700,-0.344093084335327,0
368810,-0.34388592839241,0
368920,-0.344093084335327,0
369030,-0.344093084335327,0
369140,-0.343471586704254,0
369240,-0.34388592839241,0
369350,-0.34388592839241,0
369460,-0.342642962932587,0
369570,-0.344921708106995,0
369680,-0.343471586704254,0
369790,-0.344093084335327,0
369900,-0.34305727481842,0
370010,-0.343678742647171,0
370120,-0.344300240278244,0
370230,-0.344093084335327,0
370340,-0.343678742647171,0
370450,-0.344300240278244,0
370560,-0.344093084335327,0
370660,-0.343678742647171,0
370770,-0.34305727481842,0
370880,-0.343678742647171,0
370990,-0.344093084335327,0
371100,-0.344093084335327,0
371210,-0.344093084335327,0
371320,-0.344507396221161,0
371430,-0.343678742647171,0
371540,-0.344507396221161,0
371650,-0.344093084335327,0
371760,-0.343264430761337,0
371870,-0.344093084335327,0
371970,-0.34388592839241,0
372080,-0.343471586704254,0
372190,-0.342228621244431,0
372300,-0.345128864049912,0
372410,-0.343678742647171,0
372520,-0.344714552164078,0
372630,-0.344093084335327,0
372740,-0.34305727481842,0
372850,-0.343264430761337,0
372960,-0.34243580698967,0
373070,-0.343678742647171,0
373180,-0.34305727481842,0
373290,-0.34388592839241,0
373390,-0.344093084335327,0
373500,-0.343678742647171,0
373610,-0.344300240278244,0
373720,-0.34305727481842,0
373830,-0.342228621244431,0
373940,-0.34388592839241,0
374050,-0.344093084335327,0
374160,-0.34388592839241,0
374270,-0.345750361680985,0
374380,-0.343264430761337,0
374490,-0.342850118875504,0
374600,-0.343264430761337,0
374700,-0.342642962932587,0
374810,-0.343471586704254,0
374920,-0.34305727481842,0
375030,-0.344093084335327,0
375140,-0.34388592839241,0
375250,-0.343471586704254,0
375360,-0.343264430761337,0
375470,-0.344093084335327,0
375580,-0.343471586704254,0
375690,-0.34388592839241,0
375800,-0.344093084335327,0
375910,-0.344507396221161,0
376020,-0.343678742647171,0
376120,-0.344507396221161,0
376230,-0.344093084335327,0
376340,-0.344300240278244,0
376450,-0.34305727481842,0
376560,-0.342850118875504,0
376670,-0.343678742647171,0
376780,-0.343471586704254,0
376890,-0.343264430761337,0
377000,-0.344300240278244,0
377110,-0.343264430761337,0
377220,-0.34388592839241,0
377330,-0.342850118875504,0
377430,-0.343471586704254,0
377540,-0.343471586704254,0
377650,-0.344093084335327,0
377760,-0.343471586704254,0
377870,-0.34388592839241,0
377980,-0.343678742647171,0
378090,-0.344300240278244,0
378200,-0.34305727481842,0
378310,-0.34388592839241,0
378420,-0.34305727481842,0
378530,-0.344093084335327,0
378640,-0.34388592839241,0
378750,-0.343264430761337,0
378850,-0.344093084335327,0
378960,-0.344300240278244,0
379070,-0.344507396221161,0
379180,-0.343471586704254,0
379290,-0.344093084335327,0
379400,-0.342850118875504,0
379510,-0.344093084335327,0
379620,-0.34388592839241,0
379730,-0.34388592839241,0
379840,-0.34388592839241,0
379950,-0.342642962932587,0
380060,-0.344093084335327,0
380160,-0.344093084335327,0
380270,-0.34388592839241,0
380380,-0.34305727481842,0
380490,-0.344921708106995,0
380600,-0.343471586704254,0
380710,-0.345128864049912,0
380820,-0.345543205738068,0
380930,-0.343678742647171,0
381040,-0.34388592839241,0
381150,-0.343678742647171,0
381260,-0.344093084335327,0
381370,-0.344093084335327,0
381480,-0.343678742647171,0
381580,-0.344714552164078,0
381690,-0.342642962932587,0
381800,-0.343471586704254,0
381910,-0.342850118875504,0
382020,-0.34388592839241,0
382130,-0.343264430761337,0
382240,-0.344093084335327,0
382350,-0.344300240278244,0
382460,-0.343264430761337,0
382570,-0.344921708106995,0
382680,-0.34388592839241,0
382790,-0.343471586704254,0
382890,-0.34305727481842,0
383000,-0.343264430761337,0
383110,-0.343678742647171,0
383220,-0.343471586704254,0
383330,-0.343471586704254,0
383440,-0.343264430761337,0
383550,-0.34388592839241,0
383660,-0.34243580698967,0
383770,-0.344093084335327,0
383880,-0.34388592839241,0
383990,-0.344921708106995,0
384100,-0.343471586704254,0
384210,-0.344714552164078,0
384310,-0.344300240278244,0
384420,-0.343678742647171,0
384530,-0.344093084335327,0
384640,-0.344921708106995,0
384750,-0.343471586704254,0
384860,-0.343264430761337,0
384970,-0.34388592839241,0
385080,-0.344714552164078,0
385190,-0.34388592839241,0
385300,-0.34388592839241,0
385410,-0.344093084335327,0
385520,-0.344921708106995,0
385620,-0.344093084335327,0
385730,-0.343471586704254,0
385840,-0.344507396221161,0
385950,-0.343471586704254,0
386170,-0.344714552164078,0
386060,-0.343678742647171,0
386280,-0.343471586704254,0
386280,-0.343471586704254,0
386390,-0.343678742647171,0
386500,-0.344714552164078,0
386610,-0.343471586704254,0
386720,-0.344507396221161,0
386830,-0.343471586704254,0
386940,-0.34388592839241,0
387040,-0.343678742647171,0
387150,-0.343471586704254,0
387260,-0.343471586704254,0
387370,-0.344093084335327,0
387480,-0.342642962932587,0
387590,-0.344507396221161,0
387700,-0.343471586704254,0
387810,-0.344714552164078,0
387920,-0.344093084335327,0
388030,-0.342642962932587,0
388140,-0.34305727481842,0
388250,-0.344093084335327,0
388350,-0.34388592839241,0
388460,-0.344507396221161,0
388570,-0.34388592839241,0
388680,-0.343264430761337,0
388790,-0.343678742647171,0
388900,-0.343471586704254,0
389010,-0.343678742647171,0
389120,-0.343264430761337,0
389230,-0.34388592839241,0
389340,-0.342642962932587,0
389450,-0.343678742647171,0
389560,-0.343678742647171,0
389670,-0.34388592839241,0
389770,-0.343678742647171,0
389880,-0.342642962932587,0
389990,-0.34388592839241,0
390100,-0.34388592839241,0
390210,-0.343678742647171,0
390320,-0.344714552164078,0
390430,-0.344714552164078,0
390540,-0.343678742647171,0
390650,-0.343678742647171,0
390760,-0.344300240278244,0
390870,-0.343264430761337,0
390980,-0.34388592839241,0
391080,-0.343678742647171,0
391190,-0.343678742647171,0
391300,-0.34305727481842,0
391410,-0.34388592839241,0
391520,-0.343471586704254,0
391630,-0.343471586704254,0
391740,-0.342850118875504,0
391850,-0.343264430761337,0
391960,-0.345543205738068,0
392070,-0.34305727481842,0
392180,-0.344714552164078,0
392290,-0.343264430761337,0
392400,-0.344300240278244,0
392500,-0.344507396221161,0
392610,-0.343264430761337,0
392720,-0.343264430761337,0
392830,-0.34243580698967,0
392940,-0.342850118875504,0
393050,-0.344093084335327,0
393160,-0.343678742647171,0
393270,-0.342642962932587,0
393380,-0.343264430761337,0
393490,-0.343471586704254,0
393600,-0.343678742647171,0
393710,-0.343264430761337,0
393810,-0.344300240278244,0
393920,-0.34305727481842,0
394030,-0.34305727481842,0
394140,-0.343678742647171,0
394250,-0.344093084335327,0
394360,-0.342850118875504,0
394470,-0.342850118875504,0
394580,-0.344093084335327,0
394690,-0.344507396221161,0
394800,-0.34305727481842,0
394910,-0.34388592839241,0
395020,-0.34388592839241,0
395130,-0.343264430761337,0
395230,-0.344093084335327,0
395340,-0.343264430761337,0
395450,-0.344093084335327,0
395560,-0.343264430761337,0
395670,-0.343471586704254,0
395780,-0.345336049795151,0
395890,-0.343471586704254,0
396000,-0.344714552164078,0
396110,-0.34388592839241,0
396220,-0.344507396221161,0
396330,-0.34305727481842,0
396440,-0.343678742647171,0
396540,-0.34388592839241,0
396650,-0.344093084335327,0
396760,-0.34388592839241,0
396870,-0.344093084335327,0
396980,-0.34388592839241,0
397090,-0.344300240278244,0
397200,-0.343678742647171,0
397310,-0.344300240278244,0
397420,-0.343471586704254,0
397530,-0.34388592839241,0
397640,-0.342642962932587,0
397750,-0.343678742647171,0
397860,-0.343264430761337,0
397960,-0.344300240278244,0
398070,-0.34388592839241,0
398180,-0.34305727481842,0
398290,-0.342642962932587,0
398400,-0.34388592839241,0
398510,-0.344093084335327,0
398620,-0.342642962932587,0
398730,-0.343678742647171,0
398840,-0.343678742647171,0
398950,-0.343471586704254,0
399060,-0.344300240278244,0
399170,-0.344507396221161,0
399270,-0.344093084335327,0
399380,-0.34388592839241,0
399490,-0.34305727481842,0
399600,-0.343678742647171,0
399710,-0.34243580698967,0
399820,-0.343678742647171,0
399930,-0.344300240278244,0
400040,-0.342850118875504,0
400150,-0.344093084335327,0
400260,-0.343471586704254,0
400370,-0.344093084335327,0
400480,-0.345750361680985,0
400590,-0.344714552164078,0
400690,-0.343678742647171,0
400800,-0.344300240278244,0
400910,-0.34388592839241,0
401020,-0.343678742647171,0
401130,-0.343264430761337,0
401240,-0.34388592839241,0
401350,-0.34305727481842,0
401460,-0.343678742647171,0
401570,-0.34305727481842,0
401680,-0.34388592839241,0
401790,-0.344093084335327,0
401900,-0.34305727481842,0
402000,-0.344093084335327,0
402110,-0.343264430761337,0
402220,-0.344093084335327,0
402330,-0.34305727481842,0
402440,-0.343264430761337,0
402550,-0.343678742647171,0
402660,-0.344300240278244,0
402770,-0.343678742647171,0
402880,-0.344093084335327,0
402990,-0.343471586704254,0
403100,-0.342850118875504,0
403210,-0.344093084335327,0
403320,-0.344921708106995,0
403420,-0.343678742647171,0
403530,-0.344300240278244,0
403640,-0.342850118875504,0
403750,-0.344093084335327,0
403860,-0.343678742647171,0
403970,-0.344714552164078,0
404080,-0.343471586704254,0
404190,-0.344507396221161,0
404300,-0.34388592839241,0
404410,-0.344921708106995,0
404520,-0.34243580698967,0
404630,-0.343678742647171,0
404730,-0.34388592839241,0
404840,-0.343264430761337,0
404950,-0.344093084335327,0
405060,-0.342850118875504,0
405170,-0.34243580698967,0
405280,-0.344300240278244,0
405390,-0.344093084335327,0
405500,-0.343264430761337,0
405610,-0.34388592839241,0
405720,-0.34305727481842,0
405830,-0.343471586704254,0
405940,-0.34388592839241,0
406050,-0.344507396221161,0
406150,-0.343471586704254,0
406260,-0.343264430761337,0
406370,-0.344507396221161,0
406480,-0.344300240278244,0
406590,-0.34388592839241,0
406700,-0.34243580698967,0
406810,-0.342850118875504,0
406920,-0.343264430761337,0
407030,-0.342850118875504,0
407140,-0.343471586704254,0
407250,-0.34388592839241,0
407360,-0.343678742647171,0
407460,-0.344300240278244,0
407570,-0.34388592839241,0
407680,-0.343471586704254,0
407790,-0.344921708106995,0
407900,-0.34388592839241,0
408010,-0.344300240278244,0
408120,-0.343471586704254,0
408230,-0.343678742647171,0
408340,-0.342850118875504,0
408450,-0.343264430761337,0
408560,-0.342850118875504,0
408670,-0.34305727481842,0
408780,-0.343471586704254,0
408880,-0.344093084335327,0
408990,-0.344093084335327,0
409100,-0.34388592839241,0
409210,-0.344093084335327,0
409320,-0.343471586704254,0
409430,-0.34388592839241,0
409540,-0.344714552164078,0
409650,-0.344300240278244,0
409760,-0.343264430761337,0
409870,-0.344300240278244,0
409980,-0.343471586704254,0
410090,-0.342850118875504,0
410190,-0.343678742647171,0
410300,-0.344300240278244,0
410410,-0.343264430761337,0
410520,-0.344714552164078,0
410630,-0.343471586704254,0
410740,-0.344093084335327,0
410850,-0.344093084335327,0
410960,-0.343264430761337,0
411070,-0.344507396221161,0
411180,-0.344093084335327,0
411290,-0.34388592839241,0
411400,-0.344093084335327,0
411510,-0.342642962932587,0
411610,-0.343471586704254,0
411720,-0.344300240278244,0
411830,-0.343264430761337,0
411940,-0.343264430761337,0
412050,-0.344300240278244,0
412160,-0.345128864049912,0
412270,-0.344300240278244,0
412380,-0.344093084335327,0
412490,-0.343678742647171,0
412600,-0.343678742647171,0
412710,-0.343471586704254,0
412820,-0.343678742647171,0
412920,-0.343678742647171,0
413030,-0.344093084335327,0
413140,-0.34243580698967,0
413250,-0.34388592839241,0
413360,-0.343678742647171,0
413470,-0.343678742647171,0
413580,-0.34388592839241,0
413690,-0.343264430761337,0
413800,-0.34388592839241,0
413910,-0.343471586704254,0
414020,-0.344093084335327,0
414130,-0.34243580698967,0
414240,-0.344921708106995,0
414340,-0.34388592839241,0
414450,-0.344507396221161,0
414560,-0.344300240278244,0
414670,-0.34305727481842,0
414780,-0.344714552164078,0
414890,-0.343678742647171,0
415000,-0.344300240278244,0
415110,-0.34243580698967,0
415220,-0.343678742647171,0
415330,-0.343264430761337,0
415440,-0.344921708106995,0
415550,-0.342642962932587,0
415650,-0.343471586704254,0
415760,-0.343471586704254,0
415870,-0.344300240278244,0
415980,-0.343264430761337,0
416090,-0.344714552164078,0
416200,-0.342228621244431,0
416310,-0.344714552164078,0
416420,-0.343471586704254,0
416530,-0.343678742647171,0
416640,-0.344300240278244,0
416750,-0.343678742647171,0
416860,-0.343678742647171,0
416970,-0.342642962932587,0
417070,-0.34388592839241,0
417180,-0.344300240278244,0
417290,-0.344714552164078,0
417400,-0.34305727481842,0
417510,-0.342642962932587,0
417620,-0.342642962932587,0
417730,-0.34243580698967,0
417840,-0.34388592839241,0
417950,-0.344507396221161,0
418060,-0.34305727481842,0
418170,-0.344093084335327,0
418280,-0.344093084335327,0
418390,-0.34388592839241,0
418490,-0.34388592839241,0
418600,-0.34388592839241,0
418710,-0.343264430761337,0
418820,-0.343678742647171,0
418930,-0.344714552164078,0
419040,-0.343471586704254,0
419150,-0.344093084335327,0
419260,-0.343264430761337,0
419370,-0.344300240278244,0
419480,-0.34388592839241,0
419590,-0.343678742647171,0
419700,-0.34305727481842,0
419800,-0.344300240278244,0
419910,-0.343264430761337,0
420020,-0.34388592839241,0
420130,-0.343678742647171,0
420240,-0.344093084335327,0
420350,-0.342850118875504,0
420460,-0.342850118875504,0
420570,-0.343264430761337,0
420680,-0.343678742647171,0
420790,-0.342850118875504,0
420900,-0.34388592839241,0
421010,-0.343264430761337,0
421120,-0.342642962932587,0
421220,-0.342850118875504,0
421330,-0.343264430761337,0
421440,-0.344093084335327,0
421550,-0.34388592839241,0
421660,-0.344093084335327,0
421770,-0.344507396221161,0
421880,-0.344300240278244,0
421990,-0.344300240278244,0
422100,-0.344921708106995,0
422210,-0.343264430761337,0
422320,-0.343471586704254,0
422430,-0.344300240278244,0
422530,-0.345336049795151,0
422640,-0.34388592839241,0
422750,-0.344093084335327,0
422860,-0.343471586704254,0
422970,-0.343678742647171,0
423080,-0.343264430761337,0
423190,-0.343471586704254,0
423300,-0.343678742647171,0
423410,-0.343678742647171,0
423520,-0.344093084335327,0
423630,-0.34243580698967,0
423740,-0.344507396221161,0
423850,-0.344921708106995,0
423950,-0.344093084335327,0
424060,-0.342850118875504,0
424170,-0.343678742647171,0
424280,-0.34388592839241,0
424390,-0.343264430761337,0
424500,-0.344507396221161,0
424610,-0.344300240278244,0
424720,-0.344507396221161,0
424830,-0.343264430761337,0
424940,-0.343471586704254,0
425050,-0.344714552164078,0
425160,-0.343264430761337,0
425260,-0.344093084335327,0
425370,-0.343471586704254,0
425480,-0.344300240278244,0
425590,-0.342642962932587,0
425700,-0.343471586704254,0
425810,-0.34388592839241,0
425920,-0.343264430761337,0
426030,-0.344300240278244,0
426140,-0.344093084335327,0
426250,-0.344507396221161,0
426360,-0.344507396221161,0
426470,-0.343471586704254,0
426580,-0.343678742647171,0
426680,-0.34305727481842,0
426790,-0.343678742647171,0
426900,-0.344093084335327,0
427010,-0.34388592839241,0
427120,-0.344300240278244,0
427230,-0.34388592839241,0
427340,-0.345128864049912,0
427450,-0.343678742647171,0
427560,-0.344093084335327,0
427670,-0.344093084335327,0
427780,-0.344714552164078,0
427890,-0.343471586704254,0
427990,-0.344300240278244,0
428100,-0.344300240278244,0
428210,-0.344093084335327,0
428320,-0.344093084335327,0
428430,-0.343264430761337,0
428540,-0.34388592839241,0
428650,-0.344093084335327,0
428760,-0.344093084335327,0
428870,-0.343264430761337,0
428980,-0.344507396221161,0
429090,-0.343678742647171,0
429200,-0.343471586704254,0
429310,-0.344093084335327,0
429410,-0.344507396221161,0
429520,-0.344507396221161,0
429630,-0.343264430761337,0
429740,-0.345128864049912,0
429850,-0.343678742647171,0
429960,-0.344921708106995,0
430070,-0.343678742647171,0
430180,-0.344093084335327,0
430290,-0.344714552164078,0
430400,-0.344507396221161,0
430510,-0.34388592839241,0
430620,-0.342228621244431,0
430720,-0.34388592839241,0
430830,-0.34388592839241,0
430940,-0.34388592839241,0
431050,-0.344507396221161,0
431160,-0.343471586704254,0
431270,-0.343678742647171,0
431380,-0.343471586704254,0
431490,-0.344507396221161,0
431600,-0.342642962932587,0
431710,-0.344093084335327,0
431820,-0.344300240278244,0
431930,-0.344300240278244,0
432040,-0.343678742647171,0
432140,-0.342228621244431,0
432250,-0.34243580698967,0
432360,-0.343264430761337,0
432470,-0.344507396221161,0
432580,-0.342642962932587,0
432690,-0.34388592839241,0
432800,-0.344093084335327,0
432910,-0.343471586704254,0
433020,-0.34388592839241,0
433130,-0.345128864049912,0
433240,-0.344093084335327,0
433350,-0.344093084335327,0
433450,-0.342850118875504,0
433560,-0.343264430761337,0
433670,-0.343678742647171,0
433780,-0.342850118875504,0
433890,-0.34388592839241,0
434000,-0.343678742647171,0
434110,-0.343678742647171,0
434220,-0.343264430761337,0
434330,-0.343471586704254,0
434440,-0.34305727481842,0
434550,-0.34388592839241,0
434660,-0.34305727481842,0
434770,-0.343471586704254,0
434870,-0.343264430761337,0
434980,-0.344093084335327,0
435090,-0.342850118875504,0
435200,-0.344300240278244,0
435310,-0.344507396221161,0
435420,-0.34388592839241,0
435530,-0.343471586704254,0
435640,-0.344714552164078,0
435750,-0.344300240278244,0
435860,-0.344300240278244,0
435970,-0.343264430761337,0
436080,-0.34388592839241,0
436180,-0.343471586704254,0
436290,-0.344714552164078,0
436400,-0.343264430761337,0
436510,-0.343471586704254,0
436620,-0.342642962932587,0
436730,-0.343471586704254,0
436840,-0.34388592839241,0
436950,-0.345128864049912,0
437060,-0.343471586704254,0
437170,-0.34388592839241,0
437280,-0.343471586704254,0
437390,-0.343471586704254,0
437500,-0.344507396221161,0
437600,-0.34388592839241,0
437710,-0.344507396221161,0
437820,-0.344093084335327,0
437930,-0.34388592839241,0
438040,-0.344093084335327,0
438150,-0.342850118875504,0
438260,-0.34388592839241,0
438370,-0.342850118875504,0
438480,-0.34305727481842,0
438590,-0.342642962932587,0
438700,-0.343471586704254,0
438810,-0.343678742647171,0
438910,-0.343264430761337,0
439020,-0.34243580698967,0
439130,-0.343471586704254,0
439240,-0.344507396221161,0
439350,-0.344507396221161,0
439460,-0.34388592839241,0
439570,-0.343471586704254,0
439680,-0.344714552164078,0
439790,-0.343264430761337,0
439900,-0.344093084335327,0
440010,-0.342850118875504,0
440120,-0.344507396221161,0
440230,-0.343678742647171,0
440330,-0.34388592839241,0
440440,-0.34305727481842,0
440550,-0.342850118875504,0
440660,-0.344921708106995,0
440770,-0.344714552164078,0
440880,-0.344300240278244,0
440990,-0.34388592839241,0
441100,-0.344093084335327,0
441210,-0.34305727481842,0
441320,-0.343471586704254,0
441430,-0.34388592839241,0
441540,-0.342642962932587,0
441640,-0.34388592839241,0
441750,-0.34388592839241,0
441860,-0.343678742647171,0
441970,-0.34305727481842,0
442080,-0.343678742647171,0
442190,-0.344921708106995,0
442300,-0.343678742647171,0
442410,-0.34388592839241,0
442520,-0.343678742647171,0
442630,-0.343471586704254,0
442740,-0.34388592839241,0
442850,-0.343264430761337,0
442960,-0.34388592839241,0
443060,-0.342642962932587,0
443170,-0.344093084335327,0
443280,-0.343678742647171,0
443390,-0.344300240278244,0
443500,-0.342850118875504,0
443610,-0.343678742647171,0
443720,-0.344300240278244,0
443830,-0.344921708106995,0
443940,-0.343678742647171,0
444050,-0.344300240278244,0
444160,-0.34305727481842,0
444270,-0.34305727481842,0
444370,-0.344300240278244,0
444480,-0.343471586704254,0
444590,-0.343264430761337,0
444700,-0.343678742647171,0
444810,-0.342850118875504,0
444920,-0.343471586704254,0
445030,-0.343678742647171,0
445140,-0.342642962932587,0
445250,-0.344300240278244,0
445360,-0.344300240278244,0
445470,-0.344714552164078,0
445580,-0.343678742647171,0
445690,-0.34243580698967,0
445790,-0.344300240278244,0
445900,-0.34388592839241,0
446010,-0.343471586704254,0
446120,-0.344093084335327,0
446230,-0.343471586704254,0
446340,-0.344093084335327,0
446450,-0.343471586704254,0
446560,-0.344300240278244,0
446670,-0.343678742647171,0
446780,-0.345543205738068,0
446890,-0.342850118875504,0
447000,-0.344093084335327,0
447100,-0.345336049795151,0
447210,-0.343471586704254,0
447320,-0.344507396221161,0
447430,-0.344093084335327,0
447540,-0.343264430761337,0
447650,-0.343264430761337,0
447760,-0.34388592839241,0
447870,-0.342850118875504,0
447980,-0.34388592839241,0
448090,-0.343264430761337,0
448200,-0.344093084335327,0
448310,-0.343471586704254,0
448420,-0.344300240278244,0
448520,-0.343678742647171,0
448630,-0.343678742647171,0
448740,-0.344093084335327,0
448850,-0.34305727481842,0
448960,-0.34305727481842,0
449070,-0.344093084335327,0
449180,-0.344714552164078,0
449290,-0.343471586704254,0
449400,-0.34305727481842,0
449510,-0.343264430761337,0
449620,-0.34305727481842,0
449730,-0.34305727481842,0
449830,-0.343471586704254,0
449940,-0.344507396221161,0
450050,-0.34305727481842,0
450160,-0.34388592839241,0
450270,-0.34305727481842,0
450380,-0.344093084335327,0
450490,-0.343471586704254,0
450600,-0.342021465301514,0
450710,-0.344093084335327,0
450820,-0.344507396221161,0
450930,-0.34305727481842,0
451040,-0.344093084335327,0
451150,-0.343471586704254,0
451250,-0.344714552164078,0
451360,-0.34305727481842,0
451470,-0.344507396221161,0
451580,-0.343678742647171,0
451690,-0.343471586704254,0
451800,-0.342850118875504,0
451910,-0.343264430761337,0
452020,-0.344300240278244,0
452130,-0.344507396221161,0
452240,-0.343264430761337,0
452350,-0.344093084335327,0
452460,-0.343264430761337,0
452560,-0.345336049795151,0
452670,-0.343264430761337,0
452780,-0.344714552164078,0
452890,-0.343678742647171,0
453000,-0.343678742647171,0
453110,-0.344714552164078,0
453220,-0.343678742647171,0
453330,-0.343471586704254,0
453440,-0.343678742647171,0
453550,-0.344300240278244,0
453660,-0.343264430761337,0
453770,-0.343471586704254,0
453880,-0.344300240278244,0
453980,-0.34243580698967,0
454090,-0.343471586704254,0
454200,-0.342228621244431,0
454310,-0.344507396221161,0
454420,-0.342642962932587,0
454530,-0.34305727481842,0
454640,-0.343264430761337,0
454750,-0.34388592839241,0
454860,-0.343678742647171,0
454970,-0.343678742647171,0
455080,-0.344093084335327,0
455190,-0.343678742647171,0
455290,-0.34305727481842,0
455400,-0.344093084335327,0
455510,-0.343471586704254,0
455620,-0.344300240278244,0
455730,-0.342642962932587,0
455840,-0.343471586704254,0
455950,-0.344507396221161,0
456060,-0.343264430761337,0
456170,-0.343471586704254,0
456280,-0.343678742647171,0
456390,-0.344300240278244,0
456500,-0.344093084335327,0
456610,-0.34388592839241,0
456710,-0.344093084335327,0
456820,-0.344714552164078,0
456930,-0.344093084335327,0
457040,-0.34388592839241,0
457150,-0.344507396221161,0
457260,-0.34388592839241,0
457370,-0.344300240278244,0
457480,-0.34388592839241,0
457590,-0.343471586704254,0
457700,-0.343264430761337,0
457810,-0.344714552164078,0
457920,-0.345336049795151,0
458020,-0.344507396221161,0
458130,-0.344507396221161,0
458240,-0.344300240278244,0
458350,-0.344507396221161,0
458460,-0.343471586704254,0
458570,-0.344300240278244,0
458680,-0.343678742647171,0
458790,-0.34388592839241,0
458900,-0.344300240278244,0
459010,-0.342850118875504,0
459120,-0.343678742647171,0
459230,-0.343678742647171,0
459340,-0.343264430761337,0
459440,-0.343678742647171,0
459550,-0.34388592839241,0
459660,-0.344093084335327,0
459770,-0.342642962932587,0
459880,-0.343471586704254,0
459990,-0.343678742647171,0
460100,-0.344714552164078,0
460210,-0.343264430761337,0
460320,-0.34388592839241,0
460430,-0.342642962932587,0
460540,-0.344507396221161,0
460650,-0.344507396221161,0
460750,-0.344714552164078,0
460860,-0.343471586704254,0
460970,-0.343678742647171,0
461080,-0.342850118875504,0
461190,-0.344921708106995,0
461300,-0.343264430761337,0
461410,-0.343471586704254,0
461520,-0.344714552164078,0
461630,-0.342850118875504,0
461740,-0.342642962932587,0
461850,-0.344300240278244,0
461960,-0.345336049795151,0
462070,-0.344300240278244,0
462170,-0.343471586704254,0
462280,-0.34388592839241,0
462390,-0.344714552164078,0
462500,-0.343264430761337,0
462610,-0.343678742647171,0
462720,-0.343678742647171,0
462830,-0.344921708106995,0
462940,-0.344093084335327,0
463050,-0.343471586704254,0
463160,-0.343264430761337,0
463270,-0.343264430761337,0
463380,-0.34388592839241,0
463480,-0.344507396221161,0
463590,-0.342850118875504,0
463700,-0.344507396221161,0
463810,-0.343471586704254,0
463920,-0.343264430761337,0
464030,-0.34388592839241,0
464140,-0.344300240278244,0
464250,-0.344507396221161,0
464360,-0.344507396221161,0
464470,-0.344507396221161,0
464580,-0.342642962932587,0
464690,-0.344714552164078,0
464800,-0.343471586704254,0
464900,-0.344507396221161,0
465010,-0.344300240278244,0
465120,-0.34305727481842,0
465230,-0.343264430761337,0
465340,-0.342642962932587,0
465450,-0.343264430761337,0
465560,-0.344714552164078,0
465670,-0.344093084335327,0
465780,-0.34388592839241,0
465890,-0.342642962932587,0
466000,-0.344093084335327,0
466110,-0.344714552164078,0
466210,-0.344093084335327,0
466320,-0.34388592839241,0
466430,-0.345128864049912,0
466540,-0.344507396221161,0
466650,-0.344093084335327,0
466760,-0.345336049795151,0
466870,-0.343471586704254,0
466980,-0.343264430761337,0
467090,-0.344507396221161,0
467200,-0.344093084335327,0
467310,-0.34388592839241,0
467420,-0.344300240278244,0
467530,-0.344507396221161,0
467630,-0.34388592839241,0
467740,-0.344300240278244,0
467850,-0.344300240278244,0
467960,-0.343471586704254,0
468070,-0.34388592839241,0
468180,-0.34388592839241,0
468290,-0.344507396221161,0
468400,-0.345128864049912,0
468510,-0.34243580698967,0
468620,-0.34388592839241,0
468730,-0.344714552164078,0
468840,-0.344921708106995,0
468940,-0.344507396221161,0
469050,-0.34388592839241,0
469160,-0.343678742647171,0
469270,-0.344300240278244,0
469380,-0.344714552164078,0
469490,-0.34243580698967,0
469600,-0.343471586704254,0
469710,-0.342850118875504,0
469820,-0.344714552164078,0
469930,-0.34305727481842,0
470040,-0.345128864049912,0
470150,-0.343678742647171,0
470260,-0.34305727481842,0
470360,-0.344507396221161,0
470470,-0.343471586704254,0
470580,-0.34305727481842,0
470690,-0.34388592839241,0
470800,-0.343264430761337,0
470910,-0.344300240278244,0
471020,-0.344300240278244,0
471130,-0.343678742647171,0
471240,-0.34388592839241,0
471350,-0.344093084335327,0
471460,-0.344714552164078,0
471570,-0.343678742647171,0
471670,-0.34243580698967,0
471780,-0.34388592839241,0
471890,-0.342642962932587,0
472000,-0.343678742647171,0
472110,-0.343471586704254,0
472220,-0.343678742647171,0
472330,-0.343264430761337,0
472440,-0.343471586704254,0
472550,-0.343471586704254,0
472660,-0.344093084335327,0
472770,-0.343678742647171,0
472880,-0.343678742647171,0
472990,-0.34388592839241,0
473090,-0.343678742647171,0
473200,-0.342850118875504,0
473310,-0.344093084335327,0
473420,-0.343678742647171,0
473530,-0.344300240278244,0
473640,-0.344300240278244,0
473750,-0.34305727481842,0
473860,-0.344300240278244,0
473970,-0.344300240278244,0
474080,-0.343264430761337,0
474190,-0.342228621244431,0
474300,-0.342850118875504,0
474400,-0.343264430761337,0
474510,-0.34305727481842,0
474620,-0.344093084335327,0
474730,-0.343678742647171,0
474840,-0.342642962932587,0
474950,-0.344093084335327,0
475060,-0.34305727481842,0
475170,-0.34388592839241,0
475280,-0.342850118875504,0
475390,-0.344093084335327,0
475500,-0.344714552164078,0
475610,-0.343471586704254,0
475720,-0.343678742647171,0
475820,-0.34388592839241,0
475930,-0.342850118875504,0
476040,-0.344093084335327,0
476150,-0.343678742647171,0
476260,-0.34388592839241,0
476370,-0.344921708106995,0
476480,-0.34305727481842,0
476590,-0.343471586704254,0
476700,-0.34305727481842,0
476810,-0.343678742647171,0
476920,-0.344300240278244,0
477030,-0.34388592839241,0
477130,-0.344093084335327,0
477240,-0.343678742647171,0
477350,-0.343678742647171,0
477460,-0.343471586704254,0
477570,-0.344093084335327,0
477680,-0.344093084335327,0
477790,-0.344507396221161,0
477900,-0.343471586704254,0
478010,-0.342850118875504,0
478120,-0.343678742647171,0
478230,-0.343264430761337,0
478340,-0.343471586704254,0
478450,-0.34388592839241,0
478550,-0.344300240278244,0
478660,-0.34305727481842,0
478770,-0.34388592839241,0
478880,-0.344507396221161,0
478990,-0.344300240278244,0
479100,-0.34388592839241,0
479210,-0.343678742647171,0
479320,-0.344093084335327,0
479430,-0.343471586704254,0
479540,-0.344507396221161,0
479650,-0.344921708106995,0
479760,-0.343678742647171,0
479860,-0.342642962932587,0
479970,-0.34388592839241,0
480080,-0.343471586704254,0
480190,-0.343471586704254,0
480300,-0.344300240278244,0
480410,-0.343264430761337,0
480520,-0.34305727481842,0
480630,-0.344300240278244,0
480740,-0.343471586704254,0
480850,-0.343264430761337,0
480960,-0.342850118875504,0
481070,-0.34388592839241,0
481180,-0.341399997472763,0
481280,-0.344507396221161,0
481390,-0.34305727481842,0
481500,-0.344093084335327,0
481610,-0.34243580698967,0
481720,-0.344300240278244,0
481830,-0.343471586704254,0
481940,-0.343471586704254,0
482050,-0.343264430761337,0
