time,raw,transformed
7480,-0.340157032012939,0
7580,-0.340571343898773,0
7690,-0.340157032012939,0
7800,-0.340985685586929,0
7910,-0.340985685586929,0
8020,-0.34077849984169,0
8130,-0.340157032012939,38.0938679600755
8230,-0.340985685586929,46.8755619492897
8340,-0.340985685586929,41.6671661771479
8450,-0.339121222496033,26.6669330733198
8560,-0.341192841529846,30.9091170654634
8670,-0.340571343898773,30.8334052633589
8780,-0.339949876070023,33.0769673415554
8890,-0.342021465301514,48.4690522186934
9000,-0.340157032012939,49.5234767835377
9110,-0.340985685586929,48.6603564675901
9220,-0.340571343898773,48.7391590283201
9330,-0.341399997472763,47.2218796954705
9440,-0.34160715341568,45.4883818531488
9540,-0.34077849984169,45.3568272432069
9650,-0.341399997472763,44.2173655191036
9760,-0.341814309358597,42.532153920313
9870,-0.342021465301514,40.6829298368203
9980,-0.342228621244431,42.7774367729003
10090,-0.340364187955856,43.4663316293737
10200,-0.340364187955856,44.1022345738115
10310,-0.340157032012939,44.9379424405076
10420,-0.339742720127106,46.1901382302847
10530,-0.341399997472763,45.5168974347353
10640,-0.34160715341568,44.6663213992274
10750,-0.34077849984169,44.7308507284489
10860,-0.340157032012939,45.4163349861414
10960,-0.340364187955856,45.8582584164033
11070,-0.340571343898773,46.0781116804756
11180,-0.340364187955856,46.4758744377416
11290,-0.34243580698967,48.4375920980731
11400,-0.340571343898773,48.6487458515626
11510,-0.339949876070023,49.3421939927902
11620,-0.340157032012939,49.8398286033484
11730,-0.34077849984169,49.8438441273517
11840,-0.34160715341568,49.2379021920933
11950,-0.340571343898773,49.4048635917381
12060,-0.339949876070023,50.0000940946802
12170,-0.341192841529846,49.7159984927366
12270,-0.341399997472763,49.3056442194632
12380,-0.342021465301514,48.505533735438
12490,-0.340364187955856,48.8032907281072
12600,-0.340364187955856,49.0886411794153
12710,-0.340571343898773,49.2347970936548
12820,-0.34160715341568,48.7501056474171
12930,-0.341399997472763,48.406967422868
13040,-0.340571343898773,48.5578003758351
13150,-0.341192841529846,48.3491605123117
13260,-0.340985685586929,48.2639856699143
13370,-0.340364187955856,48.5228243375679
13480,-0.341192841529846,48.3259861817038
13590,-0.340571343898773,48.4650088974136
13690,-0.341399997472763,48.1681993680681
13800,-0.340364187955856,48.4111131481168
13910,-0.341814309358597,47.916767818449
14020,-0.339949876070023,48.3607515463136
14130,-0.341814309358597,47.8831651240841
14240,-0.340571343898773,48.0159764868305
14350,-0.339949876070023,48.4375983420099
14460,-0.341192841529846,48.2693258691961
14570,-0.340157032012939,48.5796382621559
14680,-0.340157032012939,48.8806875986102
14790,-0.340571343898773,48.989063971825
14900,-0.340985685586929,48.9131314363318
15000,-0.342021465301514,48.3929518723034
15110,-0.341192841529846,48.2395284319767
15220,-0.341399997472763,48.0035635398034
15330,-0.34160715341568,47.6884493102395
15440,-0.342228621244431,47.1284801376786
15550,-0.342021465301514,46.6667745619007
15660,-0.340571343898773,46.7928733305228
15770,-0.34077849984169,46.8345301647166
15880,-0.340157032012939,47.1154970062526
15990,-0.341814309358597,46.756445061465
16100,-0.340985685586929,46.7188609859826
16210,-0.341814309358597,46.3735712623041
16320,-0.341814309358597,46.0367032392031
16420,-0.341192841529846,45.9338500388406
16530,-0.34160715341568,45.6846402143519
16640,-0.341814309358597,45.3677667220416
16750,-0.342228621244431,44.9129174641184
16860,-0.341192841529846,44.8277102244068
16970,-0.34160715341568,44.6023978898316
17080,-0.339535564184189,45.0843871050652
17190,-0.341399997472763,44.9306723171796
17300,-0.34077849984169,44.9863841550514
17410,-0.341814309358597,44.7012103421497
17520,-0.34160715341568,44.4893717877363
17630,-0.339535564184189,44.9469256840963
17730,-0.340985685586929,44.9343235087145
17840,-0.340985685586929,44.9219838786538
17950,-0.341399997472763,44.7810361705788
18060,-0.340157032012939,45.0256168607214
18170,-0.339949876070023,45.3283861370611
18280,-0.340364187955856,45.5001033995988
18390,-0.33932837843895,45.9778268172897
18500,-0.338706910610199,46.6300016801325
18610,-0.339949876070023,46.9054363746779
18720,-0.33932837843895,47.3558664920976
18830,-0.33932837843895,47.7977169882337
18940,-0.340985685586929,47.7595283281826
19050,-0.340364187955856,47.8972907960574
19150,-0.340157032012939,48.0903709165059
19260,-0.340571343898773,48.1652324766955
19370,-0.340985685586929,48.1250914452981
19480,-0.339949876070023,48.3672057135221
19590,-0.340157032012939,48.5491944464787
19700,-0.33932837843895,48.9492030671852
19810,-0.340157032012939,49.1228937754072
19920,-0.34160715341568,48.9131314363318
20030,-0.340571343898773,48.9763827254777
20140,-0.342642962932587,48.5043638012102
20250,-0.341399997472763,48.3581408553996
20360,-0.340985685586929,48.319414621512
20460,-0.34160715341568,48.1250880395141
20570,-0.340157032012939,48.295541392944
20680,-0.341399997472763,48.1558243011613
20790,-0.34077849984169,48.1708212545129
20900,-0.340985685586929,48.1351672042572
21010,-0.341192841529846,48.0500849674957
21120,-0.34077849984169,48.0655640515912
21230,-0.34077849984169,48.0807993705829
21340,-0.340571343898773,48.1446234456343
21450,-0.339949876070023,48.1934502535538
21560,-0.340157032012939,48.2911038693928
21670,-0.340364187955856,48.2422770614733
21780,-0.34077849984169,48.2911108938221
21880,-0.34077849984169,48.3399447261709
21990,-0.34160715341568,48.1446304700636
22100,-0.341192841529846,47.9004894060367
22210,-0.34077849984169,47.9493232383855
22320,-0.34077849984169,47.9981570707343
22430,-0.341814309358597,47.3633945189221
22540,-0.341399997472763,47.3145677110026
22650,-0.34243580698967,46.8751123908685
22760,-0.34077849984169,46.6798051591904
22870,-0.339535564184189,47.2657338786538
22980,-0.341192841529846,47.021592814627
23090,-0.342642962932587,46.6309713268416
23190,-0.341399997472763,46.4356570707343
23300,-0.340364187955856,46.6797981347612
23410,-0.342228621244431,46.5333177110026
23520,-0.340571343898773,46.5821445189221
23630,-0.34077849984169,46.7286319671099
23740,-0.34160715341568,46.7774587750294
23850,-0.341814309358597,46.826285582949
23960,-0.342228621244431,46.826285582949
24070,-0.342021465301514,46.4356640951636
24180,-0.341814309358597,46.0938694152977
24290,-0.342642962932587,45.5079336714051
24400,-0.340157032012939,45.410280055566
24510,-0.341192841529846,45.4591068634856
24610,-0.34160715341568,45.4591068634856
24720,-0.34077849984169,45.4591068634856
24830,-0.341192841529846,45.2149657994587
24940,-0.342021465301514,44.8243443116734
25050,-0.34160715341568,44.5802032476465
25160,-0.34077849984169,44.4825496318075
25270,-0.340364187955856,44.9708317598612
25380,-0.341814309358597,44.6778638879148
25490,-0.34160715341568,44.2872424001295
25600,-0.341814309358597,43.8966209123441
25710,-0.340364187955856,43.9942745281831
25820,-0.34160715341568,43.9942745281831
25920,-0.340985685586929,43.8966138879148
26030,-0.341399997472763,43.554819208049
26140,-0.341399997472763,43.5059924001295
26250,-0.340985685586929,43.6036460159685
26360,-0.341399997472763,43.750126439727
26470,-0.341399997472763,43.5059853757002
26580,-0.342021465301514,43.1153638879148
26690,-0.340157032012939,43.2130175037539
26800,-0.342850118875504,42.9200496318075
26910,-0.341192841529846,42.968876439727
27020,-0.342642962932587,42.4805943116734
27130,-0.342228621244431,42.2364602720758
27240,-0.341399997472763,42.1388066562368
27340,-0.341814309358597,41.7970119763709
27450,-0.342642962932587,41.4552172965051
27560,-0.342228621244431,41.0645958087197
27670,-0.341192841529846,41.1134226166392
27780,-0.341192841529846,40.9181083605319
27890,-0.34160715341568,40.9669351684514
28000,-0.341399997472763,40.6251404885856
28110,-0.338914066553116,41.3087298483173
28220,-0.34305727481842,40.7227941044246
28330,-0.342021465301514,40.2345190008002
28440,-0.34160715341568,40.1368653849612
28550,-0.342228621244431,39.6485902813368
28650,-0.342021465301514,39.209141985632
28760,-0.341814309358597,38.9161741136856
28870,-0.341814309358597,38.7208668820076
28980,-0.341192841529846,38.9161741136856
29090,-0.342021465301514,38.7208668820076
29200,-0.34077849984169,38.8673543301954
29310,-0.342021465301514,38.7697007143564
29420,-0.342228621244431,38.7697007143564
29530,-0.343471586704254,38.4279060344905
29640,-0.34160715341568,38.1837649704637
29750,-0.340571343898773,38.2325917783832
29860,-0.341399997472763,37.9396239064369
29970,-0.341399997472763,38.0372775222759
30070,-0.341814309358597,37.8419702905978
30180,-0.340985685586929,38.0372775222759
30290,-0.341192841529846,38.1837579460344
30400,-0.340571343898773,38.3302453942222
30510,-0.341192841529846,38.4278990100612
30620,-0.341192841529846,38.5743794338198
30730,-0.341399997472763,38.7696866654978
30840,-0.342228621244431,38.5255526259002
30950,-0.341814309358597,38.4767258179807
31060,-0.341814309358597,37.9396239064369
31170,-0.342642962932587,37.6466560344905
31280,-0.340985685586929,37.5978222021417
31380,-0.342642962932587,37.4025079460344
31490,-0.342021465301514,37.3048543301954
31600,-0.34243580698967,36.6212649704637
31710,-0.340985685586929,36.6212649704637
31820,-0.342228621244431,36.3283041229466
31930,-0.341814309358597,36.2306505071076
32040,-0.341399997472763,35.9376826351613
32150,-0.342228621244431,35.4005807236174
32260,-0.341399997472763,35.1564396595905
32370,-0.341814309358597,34.5705039156979
32480,-0.341399997472763,33.9357413638857
32590,-0.340985685586929,33.6916002998588
32700,-0.341192841529846,33.2521449797247
32800,-0.34160715341568,32.7150360437515
32910,-0.341814309358597,32.5197288120735
33020,-0.34160715341568,32.2267609401271
33130,-0.34243580698967,31.689652004154
33240,-0.340571343898773,31.689652004154
33350,-0.342642962932587,31.2990305163686
33460,-0.341814309358597,30.8595822206637
33570,-0.34160715341568,30.5177875407979
33680,-0.342228621244431,29.8341981810662
33790,-0.34160715341568,29.4924035012003
33900,-0.342228621244431,29.3459230774418
34010,-0.342021465301514,29.004128397576
34110,-0.34243580698967,29.0529552054955
34220,-0.342021465301514,28.9064747817369
34330,-0.342228621244431,28.6135139342199
34440,-0.342021465301514,28.5158603183809
34550,-0.342021465301514,28.076412022676
34660,-0.341399997472763,28.076412022676
34770,-0.341814309358597,27.8322709586492
34880,-0.342228621244431,27.5393101111321
34990,-0.341814309358597,27.3928296873736
35100,-0.342642962932587,26.9533743672394
35210,-0.341814309358597,26.7092333032126
35320,-0.340571343898773,26.7092333032126
35430,-0.34243580698967,26.1232975593199
35530,-0.343264430761337,25.3908813916687
35640,-0.34077849984169,25.2932277758297
35750,-0.34243580698967,24.902599263615
35860,-0.34243580698967,24.5119707514004
35970,-0.340364187955856,24.8049386233467
36080,-0.342021465301514,24.6096313916687
36190,-0.343264430761337,24.023695647776
36300,-0.34243580698967,23.6330671355614
36410,-0.34243580698967,23.4865796873736
36520,-0.341192841529846,23.5354064952931
36630,-0.341399997472763,23.7795475593199
36740,-0.34243580698967,23.3889190471053
36840,-0.342642962932587,22.656502879454
36950,-0.341192841529846,22.656502879454
37060,-0.341814309358597,22.8518171355614
37170,-0.342228621244431,22.6565099038833
37280,-0.342021465301514,22.265888416098
37390,-0.341814309358597,22.363542031937
37500,-0.34160715341568,22.1194009679102
37610,-0.342850118875504,21.6311188398565
37720,-0.341814309358597,21.582292031937
37830,-0.341192841529846,21.7287724556955
37940,-0.341814309358597,21.8264260715345
38050,-0.342642962932587,21.6799386233467
38160,-0.342021465301514,21.6311118154272
38260,-0.34077849984169,22.0705671355614
38370,-0.341814309358597,21.679945647776
38480,-0.34160715341568,21.582292031937
38590,-0.342021465301514,21.484638416098
38700,-0.341814309358597,21.2404973520711
38810,-0.341814309358597,21.0940169283126
38920,-0.341814309358597,21.1428437362321
39030,-0.341399997472763,21.1916705441516
39140,-0.34160715341568,20.9963562880443
39250,-0.341814309358597,20.6545616081785
39360,-0.341814309358597,20.6545616081785
39470,-0.342021465301514,20.5569079923394
39570,-0.340985685586929,20.7522152240175
39680,-0.341814309358597,20.4104205441516
39790,-0.340985685586929,20.5569009679102
39900,-0.341192841529846,20.5080741599906
40010,-0.342642962932587,20.2151062880443
40120,-0.34160715341568,20.1662794801248
40230,-0.34077849984169,20.2151133124736
40340,-0.342850118875504,19.8733186326077
40450,-0.341192841529846,19.9221454405272
40560,-0.34243580698967,19.8244848002589
40670,-0.342642962932587,19.2385490563663
40780,-0.342021465301514,19.4338633124736
40890,-0.342021465301514,19.2385560807955
40990,-0.342021465301514,19.3850435289834
41100,-0.342021465301514,19.4338703369029
41210,-0.34305727481842,19.0432488491175
41320,-0.342850118875504,18.7991077850907
41430,-0.34243580698967,18.8479345930102
41540,-0.341192841529846,19.0920686326077
41650,-0.341192841529846,19.0920686326077
41760,-0.340985685586929,19.1408954405272
41870,-0.341814309358597,19.0920686326077
41980,-0.342021465301514,18.9455882088492
42090,-0.342021465301514,18.213172041198
42200,-0.341192841529846,18.6526203369029
42300,-0.341814309358597,18.7014471448224
42410,-0.342228621244431,18.5549667210638
42520,-0.341192841529846,18.7991007606614
42630,-0.341399997472763,18.9455811844199
42740,-0.342228621244431,18.8479275685809
42850,-0.342228621244431,18.7502739527419
42960,-0.341814309358597,18.6037935289834
43070,-0.342228621244431,18.5549667210638
43180,-0.34243580698967,18.1643382088492
43290,-0.342850118875504,17.9690239527419
43400,-0.340985685586929,18.2619848002589
43510,-0.34077849984169,18.8967473520711
43620,-0.34160715341568,18.8967473520711
43720,-0.340985685586929,18.7990867118028
43830,-0.342642962932587,18.5061188398565
43940,-0.341399997472763,18.5061188398565
44050,-0.34305727481842,18.2131509679102
44160,-0.342642962932587,17.8225294801248
44270,-0.341814309358597,17.6760490563663
44380,-0.342021465301514,17.3342543765004
44490,-0.342021465301514,17.1389471448224
44600,-0.34160715341568,17.0412935289834
44710,-0.342021465301514,16.8948131052248
44820,-0.342850118875504,16.748325657037
44930,-0.342642962932587,16.5530114009297
45030,-0.34160715341568,16.6018382088492
45140,-0.342228621244431,16.6994988491175
45250,-0.340985685586929,16.6994988491175
45360,-0.342021465301514,16.8459862973053
45470,-0.34160715341568,16.9436399131443
45580,-0.34305727481842,16.7971594893858
45690,-0.34160715341568,16.6506790656273
45800,-0.34243580698967,16.6018452332785
45910,-0.342850118875504,16.3577041692517
46020,-0.342021465301514,16.2112237454931
46130,-0.342850118875504,16.0647362973053
46240,-0.34160715341568,16.0159094893858
46350,-0.341814309358597,16.0159094893858
46450,-0.341399997472763,16.0159094893858
46560,-0.341814309358597,15.8206022577078
46670,-0.342021465301514,15.6252950260297
46780,-0.341399997472763,15.6741218339492
46890,-0.34305727481842,15.3811539620029
47000,-0.341399997472763,15.4299807699224
47110,-0.341192841529846,15.7229486418687
47220,-0.341399997472763,15.5276343857614
47330,-0.34160715341568,15.7717754497883
47440,-0.342021465301514,15.7229486418687
47550,-0.34160715341568,15.7229486418687
47660,-0.342850118875504,15.5764611936809
47760,-0.34160715341568,15.5764611936809
47870,-0.34160715341568,15.7229416174395
47980,-0.34243580698967,15.6252809771712
48090,-0.342228621244431,15.67411480952
48200,-0.342850118875504,15.4788005534126
48310,-0.34160715341568,15.6252809771712
48420,-0.342021465301514,15.6252809771712
48530,-0.343264430761337,15.3323131052248
48640,-0.341814309358597,15.2346594893858
48750,-0.342642962932587,15.0393452332785
48860,-0.342228621244431,15.0393452332785
48970,-0.34243580698967,14.8928577850907
49080,-0.341814309358597,15.088172041198
49180,-0.34243580698967,14.9416845930102
49290,-0.341192841529846,14.7951971448224
49400,-0.342642962932587,14.7463703369029
49510,-0.34305727481842,14.7951971448224
49620,-0.341814309358597,14.5510560807955
49730,-0.342021465301514,14.6487167210638
49840,-0.342021465301514,14.7463773613321
49950,-0.34243580698967,14.2580952332785
50060,-0.34160715341568,14.3557488491175
50170,-0.343471586704254,14.306922041198
50280,-0.34243580698967,14.306922041198
50390,-0.342021465301514,14.4045826814663
50490,-0.34077849984169,14.5022433217346
50600,-0.341814309358597,14.4045897058956
50710,-0.342642962932587,14.3557628979761
50820,-0.342228621244431,14.4534235382444
50930,-0.34243580698967,14.160455666298
51040,-0.340985685586929,14.3557628979761
51150,-0.342642962932587,14.2581022577078
51260,-0.341814309358597,14.3069290656273
51370,-0.342228621244431,14.2092754497883
51480,-0.343264430761337,13.8186539620029
51590,-0.34160715341568,14.1116218339492
51700,-0.34305727481842,13.8186539620029
51810,-0.342642962932587,13.476859282137
51910,-0.342642962932587,13.2815450260297
52020,-0.34305727481842,13.1838914101907
52130,-0.342642962932587,13.0374039620029
52240,-0.341814309358597,12.7932628979761
52350,-0.341399997472763,12.8909165138151
52460,-0.343471586704254,12.4514682181102
52570,-0.341192841529846,12.6467754497883
52680,-0.34243580698967,12.5002880016004
52790,-0.34160715341568,12.54911480952
52900,-0.342228621244431,12.4514611936809
53010,-0.342021465301514,12.3049807699224
53120,-0.342228621244431,12.1585003461639
53220,-0.341814309358597,12.1585003461639
53330,-0.341399997472763,12.2561539620029
53440,-0.34305727481842,12.0120128979761
53550,-0.342850118875504,11.5725646022712
53660,-0.341399997472763,11.6702182181102
53770,-0.341399997472763,11.5725646022712
53880,-0.343471586704254,11.0354626907273
53990,-0.34160715341568,11.2796037547541
54100,-0.34243580698967,11.0842894986468
54210,-0.343471586704254,10.4495269468346
54320,-0.341192841529846,10.84014843462
54430,-0.34243580698967,10.5471805626736
54540,-0.341814309358597,10.6936680108615
54640,-0.341814309358597,10.8889822669688
54750,-0.340985685586929,11.1331163065663
54860,-0.342642962932587,10.9866288583785
54970,-0.342228621244431,10.937802050459
55080,-0.34305727481842,10.6936609864322
55190,-0.343264430761337,10.6448341785127
55300,-0.34388592839241,10.4006931144858
55410,-0.342021465301514,10.4983537547541
55520,-0.342021465301514,10.3030465230761
55630,-0.34243580698967,10.0100786511298
55740,-0.342850118875504,9.57063035542488
55850,-0.343264430761337,9.22883567555903
55950,-0.342642962932587,9.08234822737122
56060,-0.34160715341568,9.18000184321024
56170,-0.34243580698967,8.8870339712639
56280,-0.34305727481842,8.59406609931756
56390,-0.34243580698967,8.54523226696877
56500,-0.342021465301514,8.34992503529073
56610,-0.342228621244431,8.15461780361269
56720,-0.34305727481842,7.95930354750537
56830,-0.342850118875504,7.81281609931756
56940,-0.342228621244431,7.71516248347854
57050,-0.343678742647171,7.37336780361269
57160,-0.341399997472763,7.61750886763952
57270,-0.342642962932587,7.66633567555903
57370,-0.341814309358597,7.47102844388099
57480,-0.341399997472763,7.32454099569318
57590,-0.34243580698967,7.12922673958586
57700,-0.342021465301514,6.88509269998831
57810,-0.34243580698967,6.93391950790782
57920,-0.34160715341568,6.88509269998831
58030,-0.34160715341568,7.22688737985416
58140,-0.342021465301514,7.37337482804197
58250,-0.342228621244431,7.27572121220295
58360,-0.342228621244431,7.22689440428344
58470,-0.34305727481842,6.98275334025661
58580,-0.342021465301514,6.88509972441759
58680,-0.34243580698967,6.78743908414929
58790,-0.34243580698967,6.88509269998831
58900,-0.342642962932587,6.88509269998831
59010,-0.34305727481842,6.54329802012246
59120,-0.34160715341568,6.68977844388099
59230,-0.341399997472763,6.59212482804197
59340,-0.34160715341568,6.68977844388099
59450,-0.34243580698967,6.49446418777367
59560,-0.342642962932587,6.59211780361269
59670,-0.341192841529846,6.68977141945171
59780,-0.343264430761337,6.49446418777367
59890,-0.341814309358597,6.7386052518005
60000,-0.341814309358597,6.78743205972001
60100,-0.34160715341568,7.08039993166635
60210,-0.342228621244431,6.93391950790782
60320,-0.34160715341568,6.98274631582733
60430,-0.342642962932587,6.68977844388099
60540,-0.341814309358597,6.68977844388099
60650,-0.34243580698967,6.59211780361269
60760,-0.342850118875504,6.25032312374684
60870,-0.342850118875504,6.29914993166635
60980,-0.342021465301514,6.15266950790782
61090,-0.34160715341568,6.0550158920688
61200,-0.34160715341568,6.00618908414929
61310,-0.34305727481842,5.66439440428344
61410,-0.343678742647171,5.27377291649808
61520,-0.341814309358597,5.22494610857857
61630,-0.34160715341568,5.51791398052491
61740,-0.342642962932587,5.27377291649808
61850,-0.342021465301514,5.17611930065906
61960,-0.341399997472763,5.42026036468589
62070,-0.34243580698967,5.3714265323371
62180,-0.341814309358597,5.61556759636393
62290,-0.343264430761337,5.22494610857857
62400,-0.343471586704254,4.88315142871272
62510,-0.341399997472763,5.32259972441759
62620,-0.341399997472763,5.42025334025661
62730,-0.341399997472763,5.71322121220295
62830,-0.34077849984169,6.0550158920688
62940,-0.341814309358597,6.20150334025661
63050,-0.34160715341568,6.25033014817612
63160,-0.343264430761337,6.05502291649808
63270,-0.343264430761337,5.5667478128737
63380,-0.34160715341568,5.81088887690053
63490,-0.343678742647171,5.664408453142
63600,-0.34077849984169,5.90854951716883
63710,-0.341814309358597,5.95737632508834
63820,-0.342021465301514,5.95737632508834
63930,-0.342021465301514,6.05503696535664
64040,-0.34243580698967,5.85972270924932
64140,-0.341814309358597,6.25034419703468
64250,-0.342642962932587,6.20151738911517
64360,-0.342642962932587,6.05502994092736
64470,-0.342021465301514,5.76206206898102
64580,-0.341399997472763,5.85971568482004
64690,-0.342228621244431,5.95737632508834
64800,-0.342228621244431,5.95737632508834
64910,-0.34305727481842,5.81089590132981
65020,-0.34243580698967,5.46910122146396
65130,-0.342850118875504,5.42027441354445
65240,-0.34305727481842,5.12730654159811
65350,-0.342642962932587,5.02964590132981
65460,-0.342850118875504,5.12729951716883
65560,-0.342642962932587,4.883158453142
65670,-0.341399997472763,5.27377994092736
65780,-0.342228621244431,5.37144058119566
65890,-0.342850118875504,5.32261377327615
66000,-0.34243580698967,5.46909419703468
66110,-0.342021465301514,5.61558164522249
66220,-0.342228621244431,5.51792802938347
66330,-0.343678742647171,4.98082611783958
66440,-0.343471586704254,4.98082611783958
66550,-0.342850118875504,4.59020463005422
66660,-0.34243580698967,4.59020463005422
66770,-0.341399997472763,4.63903143797373
66870,-0.343264430761337,4.3948903739469
66980,-0.34243580698967,4.2972297336786
67090,-0.342021465301514,4.34605654159811
67200,-0.34305727481842,4.05308866965177
67310,-0.34305727481842,3.66246718186641
67420,-0.342228621244431,3.85778143797373
67530,-0.342850118875504,3.85778143797373
67640,-0.343264430761337,3.41833314226886
67750,-0.342021465301514,3.27185271851033
67860,-0.342642962932587,3.46715995018837
67970,-0.342642962932587,3.22301888616154
68080,-0.342850118875504,3.12536527032252
68190,-0.34243580698967,3.36949930992007
68290,-0.343264430761337,2.88122420629569
68400,-0.342021465301514,2.97888484656399
68510,-0.34160715341568,3.0277116544835
68620,-0.341192841529846,3.17419207824203
68730,-0.341814309358597,2.97888484656399
68840,-0.341399997472763,3.27185271851033
68950,-0.34160715341568,3.41833314226886
69060,-0.34160715341568,3.76012782213471
69170,-0.34243580698967,3.95543505381275
69280,-0.341399997472763,4.54137079770543
69390,-0.342228621244431,4.49254398978592
69500,-0.34243580698967,4.39488334951762
69610,-0.34160715341568,4.59019760562494
69710,-0.342850118875504,4.59019760562494
69820,-0.34160715341568,4.9808190934103
69930,-0.342850118875504,4.93199228549079
70040,-0.341192841529846,5.02964590132981
70150,-0.342228621244431,5.0784797336786
70260,-0.342642962932587,5.17613334951762
70370,-0.342228621244431,5.22496718186641
70480,-0.340364187955856,5.61558866965177
70590,-0.34160715341568,5.7620690934103
70700,-0.343471586704254,5.66441547757128
70810,-0.342021465301514,5.8597297336786
70920,-0.34243580698967,5.81089590132981
71020,-0.34160715341568,6.29917100495419
71130,-0.34160715341568,6.25034419703468
71240,-0.342850118875504,6.20151738911517
71350,-0.343264430761337,5.85972270924932
71460,-0.341814309358597,5.7620690934103
71570,-0.342021465301514,5.8597297336786
71680,-0.34243580698967,5.7620690934103
71790,-0.34388592839241,5.42027441354445
71900,-0.34243580698967,5.22496015743713
72010,-0.34243580698967,5.02964590132981
72120,-0.342228621244431,4.9808190934103
72230,-0.34388592839241,4.59019058119566
72340,-0.340985685586929,4.88315142871272
72440,-0.34160715341568,5.22494610857857
72550,-0.342021465301514,5.22494610857857
72660,-0.342850118875504,5.12729249273955
72770,-0.342642962932587,5.07846568482004
72880,-0.342021465301514,5.22495313300785
72990,-0.34243580698967,5.37143355676638
73100,-0.34160715341568,5.37143355676638
73210,-0.341814309358597,5.27377994092736
73320,-0.34243580698967,5.07846568482004
73430,-0.342228621244431,5.12729951716883
73540,-0.343264430761337,4.9808190934103
73650,-0.342642962932587,4.63902441354445
73750,-0.342642962932587,4.78550483730298
73860,-0.342228621244431,4.68785122146396
73970,-0.342228621244431,4.59019760562494
74080,-0.34243580698967,4.39488334951762
74190,-0.34243580698967,4.34604951716883
74300,-0.342642962932587,4.101908453142
74410,-0.342850118875504,4.05308164522249
74520,-0.342228621244431,3.95542802938347
74630,-0.342850118875504,3.85777441354445
74740,-0.34243580698967,3.95542802938347
74850,-0.343471586704254,3.80894760562494
74960,-0.34160715341568,3.90660122146396
75070,-0.342021465301514,3.80894760562494
75170,-0.341814309358597,3.76012079770543
75280,-0.342021465301514,4.00426186173226
75390,-0.342642962932587,4.24839590132981
75500,-0.340985685586929,4.44370313300785
75610,-0.341814309358597,4.39487632508834
75720,-0.34077849984169,4.83433164522249
75830,-0.34305727481842,4.59019058119566
75940,-0.343264430761337,4.15074228549079
76050,-0.341814309358597,4.2972297336786
76160,-0.342642962932587,4.10191547757128
76270,-0.34243580698967,4.29722270924932
76380,-0.343678742647171,4.24839590132981
76480,-0.342228621244431,4.05308866965177
76590,-0.341192841529846,4.10191547757128
76700,-0.342642962932587,3.80894760562494
76810,-0.342021465301514,3.5159797336786
76920,-0.342642962932587,3.32066547757128
77030,-0.341814309358597,3.27183866965177
77140,-0.34243580698967,3.46714590132981
77250,-0.342228621244431,3.71128696535664
77360,-0.34305727481842,3.36949228549079
77470,-0.342021465301514,3.76011377327615
77580,-0.342642962932587,3.320658453142
77690,-0.34243580698967,3.17417100495419
77800,-0.341814309358597,3.2229978128737
77900,-0.342021465301514,3.2229978128737
78010,-0.341814309358597,3.36948526106151
78120,-0.342642962932587,3.17417100495419
78230,-0.342642962932587,3.17417100495419
78340,-0.34243580698967,3.2229978128737
78450,-0.341814309358597,3.27182462079321
78560,-0.341814309358597,3.17417100495419
78670,-0.34305727481842,2.97885674884687
78780,-0.34305727481842,2.78354249273955
78890,-0.34243580698967,2.93002291649808
79000,-0.34243580698967,2.93002291649808
79110,-0.342021465301514,3.1253371726054
79210,-0.34160715341568,3.46713185247125
79320,-0.342228621244431,3.56479249273955
79430,-0.341399997472763,3.9065871726054
79540,-0.34305727481842,3.80893355676638
79650,-0.342021465301514,3.66245313300785
79760,-0.34243580698967,3.61361930065906
79870,-0.341814309358597,3.85776036468589
79980,-0.34305727481842,3.71127994092736
80090,-0.342228621244431,3.66245313300785
80200,-0.342642962932587,3.56479249273955
80310,-0.341399997472763,4.10189440428344
80420,-0.342642962932587,4.29720163596148
80530,-0.342021465301514,4.4925158920688
80630,-0.343678742647171,4.19955504455174
80740,-0.342642962932587,3.9065871726054
80850,-0.34243580698967,4.10189440428344
80960,-0.342642962932587,4.05306759636393
81070,-0.34388592839241,3.61361227622978
81180,-0.34305727481842,3.61361227622978
81290,-0.342228621244431,3.8089265323371
81400,-0.342642962932587,3.7112658920688
81510,-0.342850118875504,3.7112658920688
81620,-0.342642962932587,3.85774631582733
81730,-0.342228621244431,3.80891950790782
81840,-0.34243580698967,3.85774631582733
81940,-0.34160715341568,4.10188737985416
82050,-0.34077849984169,4.59016950790782
82160,-0.342228621244431,4.63900334025661
82270,-0.34243580698967,4.83431057193465
82380,-0.342850118875504,4.63899631582733
82490,-0.342021465301514,4.54134269998831
82600,-0.342850118875504,4.15072121220295
82710,-0.342642962932587,3.95540695609563
82820,-0.342642962932587,3.66243908414929
82930,-0.342228621244431,3.51595866039076
83040,-0.342228621244431,3.36947823663223
83150,-0.342228621244431,3.41831206898102
83260,-0.342228621244431,3.22300483730298
83360,-0.343264430761337,2.97886377327615
83470,-0.342228621244431,3.02769760562494
83580,-0.342642962932587,2.78355654159811
83690,-0.34243580698967,2.88121015743713
83800,-0.343264430761337,2.49058866965177
83910,-0.340985685586929,2.93003696535664
84020,-0.342850118875504,2.53941547757128
84130,-0.343471586704254,2.24644760562494
84240,-0.34243580698967,2.29527441354445
84350,-0.342642962932587,2.19761377327615
84460,-0.341814309358597,1.8558190934103
84570,-0.34243580698967,1.66050483730298
84670,-0.343264430761337,1.70933164522249
84780,-0.343471586704254,1.36753696535664
84890,-0.34243580698967,1.36753696535664
85000,-0.343264430761337,0.976915477571278
85110,-0.342228621244431,0.830435053812748
85220,-0.343264430761337,0.732781437973728
85330,-0.341814309358597,1.07457611783958
85440,-0.34305727481842,0.781608245893238
85550,-0.342228621244431,0.732781437973728
85660,-0.342228621244431,0.781615270322517
85770,-0.342642962932587,1.07458314226886
85880,-0.343471586704254,0.830449102671306
85990,-0.342850118875504,0.732795486832286
86090,-0.34243580698967,0.683961654483497
86200,-0.34243580698967,1.02575633434935
86310,-0.342850118875504,0.586308038644476
86420,-0.34305727481842,0.244513358778626
86530,-0.342228621244431,0.195686550859116
86640,-0.34160715341568,0.488654422805456
86750,-0.342850118875504,0.439827614885946
86860,-0.343264430761337,0.146859742939606
86970,-0.34243580698967,0.146859742939606
87080,-0.34305727481842,0
87190,-0.34243580698967,0
87300,-0.341192841529846,0
87400,-0.342850118875504,0
87510,-0.34243580698967,0.000365270322516836
87620,-0.342642962932587,0.000365270322516836
87730,-0.342642962932587,0.000365270322516836
87840,-0.342642962932587,0
87950,-0.341814309358597,0.000358245893237666
88060,-0.343471586704254,0
88170,-0.342228621244431,0
88280,-0.34243580698967,0
88390,-0.34243580698967,0
88500,-0.341814309358597,0.049192078242027
88610,-0.342021465301514,0.244506334349347
88720,-0.343471586704254,0.000372294751796006
88820,-0.34243580698967,0.244506334349347
88930,-0.34305727481842,0
89040,-0.34243580698967,0
89150,-0.343264430761337,0
89260,-0.342850118875504,0
89370,-0.34243580698967,0
89480,-0.34243580698967,0
89590,-0.342021465301514,0
89700,-0.342850118875504,0
89810,-0.342642962932587,0
89920,-0.342642962932587,0
90030,-0.34243580698967,0
90130,-0.34305727481842,0
90240,-0.342228621244431,0
90350,-0.34305727481842,0
90460,-0.34243580698967,0
90570,-0.34243580698967,0
90680,-0.34243580698967,0
90790,-0.341814309358597,0
90900,-0.341399997472763,0
91010,-0.34160715341568,0
91120,-0.342021465301514,0
91230,-0.34305727481842,0
91340,-0.34388592839241,0
91450,-0.342642962932587,0
91550,-0.341192841529846,0
91660,-0.343471586704254,0
91770,-0.342021465301514,0
91880,-0.34305727481842,0
91990,-0.34305727481842,0
92100,-0.34305727481842,0
92210,-0.341399997472763,0
92320,-0.344093084335327,0
92430,-0.34388592839241,0
92540,-0.342850118875504,0
92650,-0.34305727481842,0
92760,-0.34243580698967,0
92860,-0.344507396221161,0
92970,-0.342850118875504,0
93080,-0.342642962932587,0
93190,-0.342850118875504,0
93300,-0.342021465301514,0
93410,-0.34305727481842,0
93520,-0.34305727481842,0
93630,-0.34243580698967,0
93740,-0.34160715341568,0
93850,-0.342850118875504,0
93960,-0.34243580698967,0
94070,-0.34388592839241,0
94180,-0.343264430761337,0
94280,-0.342850118875504,0
94390,-0.342850118875504,0
94500,-0.342021465301514,0
94610,-0.343471586704254,0
94720,-0.34305727481842,0
94830,-0.342021465301514,0
94940,-0.341814309358597,0
95050,-0.342642962932587,0
95160,-0.342228621244431,0
95270,-0.342021465301514,0
95380,-0.342850118875504,0
95490,-0.342021465301514,0
95590,-0.34388592839241,0
95700,-0.343471586704254,0
95810,-0.342642962932587,0
95920,-0.342021465301514,0
96030,-0.342021465301514,0
96140,-0.341399997472763,0
96250,-0.341814309358597,0
96360,-0.342642962932587,0
96470,-0.342021465301514,0
96580,-0.342850118875504,0
96690,-0.342228621244431,0
96800,-0.342642962932587,0
96910,-0.342642962932587,0
97010,-0.342228621244431,0
97120,-0.342850118875504,0
97230,-0.341814309358597,0
97340,-0.341814309358597,0
97450,-0.343678742647171,0
97560,-0.344093084335327,0
97670,-0.343471586704254,0
97780,-0.341814309358597,0
97890,-0.341399997472763,0
98000,-0.342642962932587,0
98110,-0.343678742647171,0
98220,-0.34243580698967,0
98320,-0.343264430761337,0
98430,-0.34388592839241,0
98540,-0.34305727481842,0
98650,-0.342228621244431,0
98760,-0.343678742647171,0
98870,-0.342642962932587,0
98980,-0.34305727481842,0
99090,-0.34243580698967,0
99200,-0.342642962932587,0
99310,-0.342642962932587,0
99420,-0.34243580698967,0
99530,-0.342642962932587,0
99640,-0.342642962932587,0
99740,-0.34305727481842,0
99850,-0.342642962932587,0
99960,-0.34305727481842,0
100070,-0.342228621244431,0
100180,-0.34305727481842,0
100290,-0.34305727481842,0
100400,-0.342850118875504,0
100510,-0.34305727481842,0
100620,-0.34243580698967,0
100730,-0.34305727481842,0
100840,-0.343264430761337,0
100950,-0.343264430761337,0
101050,-0.342850118875504,0
101160,-0.34305727481842,0
101270,-0.34305727481842,0
101380,-0.342228621244431,0
101490,-0.34305727481842,0
101600,-0.34243580698967,0
101710,-0.34243580698967,0
101820,-0.34243580698967,0
101930,-0.342642962932587,0
102040,-0.34305727481842,0
102150,-0.343264430761337,0
102260,-0.342642962932587,0
102370,-0.342228621244431,0
102470,-0.342642962932587,0
102580,-0.34243580698967,0
102690,-0.342228621244431,0
102800,-0.342642962932587,0
102910,-0.342850118875504,0
103020,-0.34160715341568,0
103130,-0.342228621244431,0
103240,-0.343471586704254,0
103350,-0.34243580698967,0
103460,-0.342642962932587,0
103570,-0.34243580698967,0
103680,-0.34243580698967,0
103780,-0.34160715341568,0
103890,-0.34243580698967,0
104000,-0.341814309358597,0
104110,-0.343264430761337,0
104220,-0.34243580698967,0
104330,-0.341192841529846,0
104440,-0.341192841529846,0
104550,-0.341192841529846,0
104660,-0.34305727481842,0
104770,-0.342642962932587,0
104880,-0.34305727481842,0
104990,-0.341814309358597,0
105100,-0.342850118875504,0
105200,-0.342850118875504,0
105310,-0.34305727481842,0
105420,-0.341399997472763,0
105530,-0.342642962932587,0
105640,-0.34243580698967,0
105750,-0.34243580698967,0
105860,-0.342021465301514,0
105970,-0.341192841529846,0
106080,-0.340985685586929,0
106190,-0.34243580698967,0
106300,-0.342021465301514,0
106410,-0.341192841529846,0
106510,-0.34305727481842,0
106620,-0.342642962932587,0
106730,-0.34243580698967,0
106840,-0.343264430761337,0
106950,-0.342228621244431,0
107060,-0.342642962932587,0
107170,-0.34243580698967,0
107280,-0.342021465301514,0
107390,-0.342021465301514,0
107500,-0.34243580698967,0
107610,-0.342850118875504,0
107720,-0.342642962932587,0
107830,-0.342850118875504,0
107930,-0.341399997472763,0
108040,-0.34243580698967,0
108150,-0.343264430761337,0
108260,-0.34243580698967,0
108370,-0.34160715341568,0
108480,-0.341399997472763,0
108590,-0.34243580698967,0
108700,-0.34160715341568,0
108810,-0.343678742647171,0
108920,-0.343678742647171,0
109030,-0.341399997472763,0
109140,-0.34243580698967,0
109240,-0.343264430761337,0
109350,-0.34243580698967,0
109460,-0.342021465301514,0
109570,-0.34305727481842,0
109680,-0.342642962932587,0
109790,-0.342642962932587,0
109900,-0.342228621244431,0
110010,-0.342021465301514,0
110120,-0.34243580698967,0
110230,-0.342228621244431,0
110340,-0.342228621244431,0
110450,-0.343264430761337,0
110560,-0.342850118875504,0
110660,-0.342642962932587,0
110770,-0.343678742647171,0
110880,-0.34305727481842,0
110990,-0.343264430761337,0
111100,-0.34388592839241,0
111210,-0.342021465301514,0
111320,-0.34243580698967,0
111430,-0.34243580698967,0
111540,-0.342021465301514,0
111650,-0.342021465301514,0
111760,-0.343471586704254,0
111870,-0.342642962932587,0
111970,-0.342850118875504,0
112080,-0.343678742647171,0
112190,-0.342850118875504,0
112300,-0.342850118875504,0
112410,-0.34243580698967,0
112520,-0.342850118875504,0
112630,-0.341814309358597,0
112740,-0.34243580698967,0
112850,-0.34305727481842,0
112960,-0.341814309358597,0
113070,-0.342850118875504,0
113180,-0.34305727481842,0
113290,-0.34305727481842,0
113390,-0.341399997472763,0
113500,-0.34160715341568,0
113610,-0.344300240278244,0
113720,-0.342850118875504,0
113830,-0.343678742647171,0
113940,-0.342228621244431,0
114050,-0.342850118875504,0
114160,-0.341814309358597,0
114270,-0.341814309358597,0
114380,-0.342642962932587,0
114490,-0.342850118875504,0
114600,-0.342228621244431,0
114700,-0.34305727481842,0
114810,-0.344300240278244,0
114920,-0.343471586704254,0
115030,-0.342642962932587,0
115140,-0.342850118875504,0
115250,-0.341814309358597,0
115360,-0.342850118875504,0
115470,-0.342228621244431,0
115580,-0.34243580698967,0
115690,-0.342021465301514,0
115800,-0.341814309358597,0
115910,-0.341814309358597,0
116020,-0.342228621244431,0
116120,-0.342642962932587,0
116230,-0.342228621244431,0
116340,-0.342642962932587,0
116450,-0.34305727481842,0
116560,-0.34305727481842,0
116670,-0.34243580698967,0
116780,-0.342850118875504,0
116890,-0.34305727481842,0
117000,-0.342021465301514,0
117110,-0.34160715341568,0
117220,-0.34388592839241,0
117330,-0.340985685586929,0
117430,-0.342021465301514,0
117540,-0.343471586704254,0
117650,-0.342228621244431,0
117760,-0.342850118875504,0
117870,-0.343264430761337,0
117980,-0.344093084335327,0
118090,-0.34243580698967,0
118200,-0.342850118875504,0
118310,-0.34305727481842,0
118420,-0.34243580698967,0
118530,-0.344093084335327,0
118640,-0.342642962932587,0
118750,-0.341192841529846,0
118850,-0.344300240278244,0
118960,-0.34305727481842,0
119070,-0.342228621244431,0
119180,-0.34305727481842,0
119290,-0.34305727481842,0
119400,-0.34243580698967,0
119510,-0.342228621244431,0
119620,-0.34388592839241,0
119730,-0.34305727481842,0
119840,-0.344507396221161,0
119950,-0.343678742647171,0
120060,-0.342850118875504,0
120160,-0.34243580698967,0
120270,-0.34305727481842,0
120380,-0.34388592839241,0
120490,-0.343264430761337,0
120600,-0.34243580698967,0
120710,-0.343264430761337,0
120820,-0.34305727481842,0
120930,-0.343264430761337,0
121040,-0.34305727481842,0
121150,-0.343264430761337,0
121260,-0.343264430761337,0
121370,-0.34243580698967,0
121480,-0.341814309358597,0
121580,-0.342642962932587,0
121690,-0.343264430761337,0
121800,-0.343678742647171,0
121910,-0.342850118875504,0
122020,-0.343264430761337,0
122130,-0.34388592839241,0
122240,-0.345543205738068,0
122350,-0.34388592839241,0
122460,-0.344093084335327,0
122570,-0.344714552164078,0
122680,-0.344093084335327,0
122790,-0.344507396221161,0
122890,-0.343264430761337,0
123000,-0.345336049795151,0
123110,-0.344507396221161,0
123220,-0.345128864049912,0
123330,-0.344714552164078,0
123440,-0.344300240278244,0
123550,-0.343471586704254,0
123660,-0.343678742647171,0
123770,-0.343264430761337,0
123880,-0.343678742647171,0
123990,-0.34305727481842,0
124100,-0.34243580698967,0
124210,-0.34388592839241,0
124310,-0.342850118875504,0
124420,-0.342228621244431,0
124530,-0.342642962932587,0
124640,-0.342228621244431,0
124750,-0.34243580698967,0
124860,-0.34243580698967,0
124970,-0.34243580698967,0
125080,-0.34305727481842,0
125190,-0.343264430761337,0
125300,-0.342850118875504,0
125410,-0.342228621244431,0
125520,-0.341814309358597,0
125620,-0.343471586704254,0
125730,-0.343264430761337,0
125840,-0.34243580698967,35.5469873939002
125950,-0.343471586704254,47.9688399151201
126060,-0.342228621244431,40.8845300249359
126170,-0.34388592839241,55.1756512992268
126280,-0.342850118875504,55.1756512992268
126390,-0.34243580698967,55.1756512992268
126500,-0.34243580698967,55.3709567748606
126610,-0.34243580698967,55.0779845126776
126720,-0.342850118875504,54.8826790370437
126830,-0.342642962932587,55.0779845126776
126940,-0.342850118875504,54.5897067748606
127040,-0.342021465301514,48.8716013171145
127150,-0.340571343898773,28.0763488028125
127260,-0.342228621244431,28.2716630589198
127370,-0.342850118875504,27.9298683790539
127480,-0.342850118875504,27.6369005071076
127590,-0.343471586704254,27.8322147632149
127700,-0.342021465301514,28.0275290193222
127810,-0.343471586704254,28.0763558272417
127920,-0.342642962932587,27.9786951869735
128030,-0.342021465301514,28.1740094430808
128140,-0.34305727481842,27.8810415711344
128250,-0.341192841529846,28.027521994893
128350,-0.342228621244431,28.1251826351613
128460,-0.343264430761337,28.0275290193222
128570,-0.341814309358597,28.1251826351613
128680,-0.342850118875504,28.1740094430808
128790,-0.343264430761337,28.4181505071076
128900,-0.34243580698967,28.6622845467051
129010,-0.34243580698967,28.7111113546247
129120,-0.342228621244431,28.8575988028125
129230,-0.342850118875504,28.6134577387856
129340,-0.34388592839241,28.3693166747588
129450,-0.34077849984169,28.7111113546247
129560,-0.343678742647171,28.4181505071076
129670,-0.34305727481842,28.1740094430808
129770,-0.342642962932587,27.9786951869735
129880,-0.342642962932587,27.7833809308661
129990,-0.342642962932587,27.6857202905978
130100,-0.34243580698967,27.7345470985173
130210,-0.343471586704254,27.441579226571
130320,-0.342228621244431,27.5392398668393
130430,-0.342642962932587,27.6368934826783
130540,-0.34243580698967,27.7833739064368
130650,-0.342228621244431,27.8322077387856
130760,-0.342850118875504,27.8322077387856
130870,-0.341192841529846,28.2716560344905
130980,-0.342850118875504,28.0763417783832
131080,-0.341192841529846,28.1739953942222
131190,-0.342850118875504,28.418136458249
131300,-0.342228621244431,28.125175610732
131410,-0.343264430761337,27.8322077387856
131520,-0.34243580698967,28.0763417783832
131630,-0.342021465301514,28.1251685863027
131740,-0.342021465301514,28.32048284241
131850,-0.341399997472763,28.7599311381149
131960,-0.34305727481842,29.0040722021417
132070,-0.343678742647171,28.7111113546247
132180,-0.34305727481842,28.6622845467051
132290,-0.341814309358597,28.9552524186515
132400,-0.342642962932587,28.906425610732
132500,-0.34243580698967,29.2970470985173
132610,-0.342642962932587,29.2970470985173
132720,-0.344093084335327,32.8125595011424
132830,-0.34305727481842,33.0882944063637
132940,-0.34243580698967,33.2261585533553
133050,-0.34243580698967,33.1801972264534
133160,-0.343264430761337,33.1342425107895
133270,-0.344093084335327,32.9044623212321
133380,-0.34305727481842,32.7665981742405
133490,-0.341814309358597,32.8585076055682
133600,-0.342228621244431,33.2261585533553
133710,-0.34243580698967,33.364022700347
133810,-0.343264430761337,33.6397576055682
133920,-0.34388592839241,33.5937962786663
134030,-0.342850118875504,33.5937962786663
134140,-0.343471586704254,33.364022700347
134250,-0.342642962932587,33.4559321316747
134360,-0.34243580698967,33.7776217525599
134470,-0.34243580698967,33.9614406152154
134580,-0.342228621244431,34.0074019421173
134690,-0.34243580698967,34.1912208047728
134800,-0.341399997472763,34.5588651413218
134910,-0.342850118875504,34.6507745726496
135020,-0.342850118875504,34.6967292883134
135130,-0.342850118875504,34.7886387196412
135230,-0.34305727481842,34.8345934353051
135340,-0.342850118875504,34.7426840039773
135450,-0.342850118875504,34.5129038144199
135560,-0.343471586704254,34.3290849517644
135670,-0.34305727481842,34.3750396674283
135780,-0.343264430761337,34.466949098756
135890,-0.343471586704254,34.3290849517644
136000,-0.342228621244431,34.5588651413218
136110,-0.340985685586929,35.2022443830922
136220,-0.342642962932587,35.8456236248625
136330,-0.342850118875504,36.0754038144199
136440,-0.34305727481842,36.3051840039773
136540,-0.343264430761337,36.6268736248625
136650,-0.342228621244431,37.0404792883134
136760,-0.34243580698967,37.5000330561902
136870,-0.343471586704254,37.4540783405264
136980,-0.343264430761337,37.9136387196412
137090,-0.34305727481842,38.2353283405264
137200,-0.342021465301514,38.9246622979606
137310,-0.343264430761337,39.2463519188457
137420,-0.34160715341568,39.8437764449522
137530,-0.342642962932587,40.0275953076077
137640,-0.342642962932587,40.2573688859271
137750,-0.344093084335327,40.0735434120335
137860,-0.341399997472763,40.5790518955742
137960,-0.34243580698967,40.7169160425658
138070,-0.34305727481842,40.5790518955742
138180,-0.342228621244431,40.9467028433613
138290,-0.342642962932587,40.9926575590251
138400,-0.343678742647171,40.67096793814
138510,-0.342642962932587,40.67096793814
138620,-0.342642962932587,40.5790518955742
138730,-0.34243580698967,40.5790518955742
138840,-0.343264430761337,40.3952330329187
138950,-0.341399997472763,40.6250132224761
139060,-0.343471586704254,40.5331037911483
139170,-0.342228621244431,40.7628839807058
139270,-0.342850118875504,40.7628839807058
139380,-0.342642962932587,40.67096793814
139490,-0.342021465301514,40.6250132224761
139600,-0.342021465301514,40.9467028433613
139710,-0.34305727481842,40.9926575590251
139820,-0.342021465301514,41.0845736015909
139930,-0.34243580698967,41.3143471799103
140040,-0.342642962932587,41.2224311373445
140150,-0.344300240278244,41.1305217060168
140260,-0.342021465301514,41.3143471799103
140370,-0.34305727481842,41.1764830329187
140480,-0.34305727481842,41.0386188859271
140590,-0.342642962932587,40.9926641702632
140690,-0.34243580698967,41.0845736015909
140800,-0.342021465301514,41.2224443598206
140910,-0.343678742647171,41.0386254971651
141020,-0.343264430761337,40.7628905919438
141130,-0.342642962932587,40.303330212829
141240,-0.342642962932587,40.2114141702632
141350,-0.342642962932587,40.2573688859271
141460,-0.342228621244431,40.3952396441567
141570,-0.34243580698967,40.6250132224761
141680,-0.343678742647171,40.2573688859271
141790,-0.34388592839241,40.1654528433613
141900,-0.343678742647171,39.9356792650419
142000,-0.343471586704254,39.6139896441567
142110,-0.342642962932587,39.7058990754845
142220,-0.342850118875504,39.3382547389354
142330,-0.342642962932587,39.2463386963696
142440,-0.343471586704254,39.2003839807058
142550,-0.344093084335327,38.6948688859271
142660,-0.34243580698967,38.7867783172548
142770,-0.342850118875504,38.8786877485826
142880,-0.34243580698967,38.8786877485826
142990,-0.342228621244431,38.9246490754845
143100,-0.342642962932587,38.8327330329187
143210,-0.343264430761337,38.7408236015909
143320,-0.34243580698967,39.0625132224761
143420,-0.342021465301514,38.7867783172548
143530,-0.34243580698967,39.062506611238
143640,-0.34305727481842,39.062506611238
143750,-0.34305727481842,38.9705971799103
143860,-0.34243580698967,39.0165518955742
143970,-0.342642962932587,39.0165518955742
144080,-0.342642962932587,38.9705971799103
144190,-0.342228621244431,39.2463320851316
144300,-0.34243580698967,39.2003707582297
144410,-0.343264430761337,39.062506611238
144520,-0.343264430761337,38.8786877485826
144630,-0.342642962932587,38.7867717060168
144730,-0.343678742647171,38.6029528433613
144840,-0.343471586704254,38.0974443598206
144950,-0.342850118875504,38.0974443598206
145060,-0.34305727481842,37.6838453076077
145170,-0.342642962932587,37.7298000232716
145280,-0.34305727481842,37.545974549378
145390,-0.341814309358597,37.8676641702632
145500,-0.342850118875504,37.7757547389354
145610,-0.34305727481842,37.545974549378
145720,-0.34305727481842,37.3161943598206
145830,-0.343264430761337,36.9025953076077
145940,-0.342021465301514,37.1323754971651
146050,-0.34243580698967,37.4081037911483
146150,-0.342021465301514,37.6378839807058
146260,-0.342642962932587,37.4540585068122
146370,-0.34243580698967,37.5000132224761
146480,-0.34160715341568,37.6838386963696
146590,-0.342228621244431,37.7757547389354
146700,-0.34305727481842,38.0055349284929
146810,-0.342228621244431,38.1893604023864
146920,-0.34243580698967,38.1893604023864
147030,-0.34388592839241,37.8676707815012
147140,-0.343264430761337,37.8676707815012
147250,-0.342228621244431,38.2812764449522
147360,-0.342642962932587,38.3731858762799
147460,-0.342228621244431,38.2812764449522
147570,-0.341399997472763,38.4650953076077
147680,-0.342642962932587,38.4191405919438
147790,-0.342850118875504,38.5110500232716
147900,-0.342850118875504,38.740830212829
148010,-0.34305727481842,38.6948754971651
148120,-0.343264430761337,38.740830212829
148230,-0.342642962932587,38.740830212829
148340,-0.344714552164078,38.2353217292883
148450,-0.343264430761337,38.0515028666328
148560,-0.342850118875504,37.9136321084031
148670,-0.343264430761337,37.7298132457477
148780,-0.343264430761337,37.3162141935347
148880,-0.343471586704254,37.1783500465431
148990,-0.342642962932587,37.224304762207
149100,-0.34243580698967,37.3162141935347
149210,-0.34305727481842,37.3162141935347
149320,-0.343264430761337,37.224304762207
149430,-0.342850118875504,37.224304762207
149540,-0.342642962932587,37.4081236248625
149650,-0.343264430761337,37.3621689091986
149760,-0.34388592839241,37.2242981509689
149870,-0.34160715341568,37.6378972031819
149980,-0.343471586704254,37.3621622979606
150090,-0.342228621244431,37.0864340039773
150200,-0.342642962932587,37.0864340039773
150300,-0.343264430761337,36.9945245726496
150410,-0.342642962932587,37.0864340039773
150520,-0.342021465301514,37.3621689091986
150630,-0.34305727481842,37.1783434353051
150740,-0.341399997472763,37.4081236248625
150850,-0.34305727481842,37.5000330561902
150960,-0.342642962932587,37.6378972031819
151070,-0.342850118875504,37.6838519188457
151180,-0.34305727481842,37.4540717292883
151290,-0.341814309358597,37.7757613501735
151400,-0.343264430761337,37.4081170136244
151510,-0.342228621244431,37.5000330561902
151610,-0.34243580698967,37.5459877718541
151720,-0.343471586704254,37.6838585300838
151830,-0.342228621244431,37.5000396674283
151940,-0.342850118875504,37.4081302361005
152050,-0.34305727481842,37.4081302361005
152160,-0.342642962932587,37.3162141935347
152270,-0.34305727481842,37.224304762207
152380,-0.34305727481842,37.3621689091986
152490,-0.342642962932587,37.3621689091986
152600,-0.34243580698967,37.4081236248625
152710,-0.342642962932587,37.3621689091986
152820,-0.343264430761337,37.3621689091986
152930,-0.34305727481842,36.9945245726496
153030,-0.342642962932587,37.1783434353051
153140,-0.341814309358597,37.2702528666328
153250,-0.342642962932587,37.3162075822967
153360,-0.343678742647171,37.0864340039773
153470,-0.342642962932587,36.9485632457477
153580,-0.343471586704254,36.6268736248625
153690,-0.341814309358597,36.9026085300838
153800,-0.341814309358597,36.9485632457477
153910,-0.343264430761337,36.7647443830922
154020,-0.342021465301514,36.9026151413218
154130,-0.34243580698967,37.3162141935347
154240,-0.343264430761337,37.0404792883134
154340,-0.34243580698967,37.1783434353051
154450,-0.34243580698967,37.3162075822967
154560,-0.343264430761337,37.1783434353051
154670,-0.344093084335327,36.810699098756
154780,-0.34243580698967,36.7187830561902
154890,-0.342021465301514,37.0864273927393
155000,-0.341814309358597,37.4081170136244
155110,-0.343264430761337,37.2702528666328
155220,-0.34388592839241,36.9945179614115
155330,-0.34305727481842,36.9026085300838
155440,-0.342642962932587,36.810692487518
155550,-0.343264430761337,36.6268736248625
155660,-0.341814309358597,37.0404726770754
155760,-0.34160715341568,37.5459877718541
155870,-0.343471586704254,37.591942487518
155980,-0.34388592839241,37.5000264449522
156090,-0.343264430761337,37.3621622979606
156200,-0.342642962932587,37.4081170136244
156310,-0.342642962932587,37.4081170136244
156420,-0.342228621244431,37.6838519188457
156530,-0.34305727481842,37.9136321084031
156640,-0.342850118875504,37.8217226770754
156750,-0.343678742647171,37.6379038144199
156860,-0.343471586704254,37.4081302361005
156970,-0.343264430761337,37.1783500465431
157070,-0.341814309358597,37.3621755204367
157180,-0.342850118875504,37.4540849517644
157290,-0.342850118875504,37.3621755204367
157400,-0.342228621244431,37.3162208047728
157510,-0.342228621244431,37.3621821316747
157620,-0.343471586704254,37.270272700347
157730,-0.343264430761337,37.2243179846831
157840,-0.342642962932587,37.1783632690192
157950,-0.34243580698967,37.2243179846831
158060,-0.34243580698967,37.270272700347
158170,-0.342642962932587,37.1783566577812
158280,-0.342850118875504,37.0864472264534
158390,-0.342228621244431,37.3162274160108
158490,-0.342642962932587,37.4540915630025
158600,-0.342850118875504,37.4081368473386
158710,-0.34305727481842,37.5460009943302
158820,-0.34160715341568,37.9596000465431
158930,-0.342642962932587,38.005554762207
159040,-0.343678742647171,37.8676906152154
159150,-0.343471586704254,37.6838717525599
159260,-0.342021465301514,37.9136519421173
159370,-0.342850118875504,37.6838717525599
159480,-0.342642962932587,37.7298264682237
159590,-0.34243580698967,37.8676906152154
159700,-0.34305727481842,37.8676906152154
159800,-0.343264430761337,37.8676906152154
159910,-0.34243580698967,37.7757745726496
160020,-0.343678742647171,37.5000462786663
160130,-0.34243580698967,37.4081302361005
160240,-0.343471586704254,37.224311373445
160350,-0.342021465301514,37.3162274160108
160460,-0.343471586704254,36.9026283637979
160570,-0.34243580698967,36.856667036896
160680,-0.34160715341568,37.1783566577812
160790,-0.34305727481842,36.9945311838876
160900,-0.342642962932587,36.9485764682237
161010,-0.34305727481842,37.1324019421173
161120,-0.341814309358597,37.4540915630025
161220,-0.34388592839241,37.0864406152154
161330,-0.343471586704254,36.9026217525599
161440,-0.343264430761337,36.6728415630025
161550,-0.343264430761337,36.2592425107895
161660,-0.342642962932587,36.2592425107895
161770,-0.342021465301514,36.4430679846831
161880,-0.343264430761337,36.3511585533553
161990,-0.34305727481842,36.3511585533553
162100,-0.341814309358597,36.6728481742405
162210,-0.342642962932587,36.6728481742405
162320,-0.34243580698967,37.1783566577812
162430,-0.343678742647171,37.0864472264534
162530,-0.343264430761337,36.9945377951257
162640,-0.34243580698967,37.1783566577812
162750,-0.34388592839241,37.0404858995515
162860,-0.343471586704254,37.0404858995515
162970,-0.34305727481842,36.9485764682237
163080,-0.34243580698967,36.9485764682237
163190,-0.342228621244431,37.1324019421173
163300,-0.342228621244431,37.3621821316747
163410,-0.342228621244431,37.5000528899044
163520,-0.343264430761337,37.3621887429128
163630,-0.344507396221161,37.0864538376915
163740,-0.34243580698967,37.4081434585766
163850,-0.34243580698967,37.2243179846831
163950,-0.34160715341568,37.637917036896
164060,-0.34243580698967,37.5919557099941
164170,-0.343678742647171,37.3621821316747
164280,-0.342021465301514,37.637917036896
164390,-0.344714552164078,37.1783632690192
164500,-0.342642962932587,37.0404925107895
164610,-0.342228621244431,37.2243179846831
164720,-0.343264430761337,36.8107189324702
164830,-0.342228621244431,36.9945444063637
164940,-0.342228621244431,37.0864604489295
165050,-0.34243580698967,37.1783698802573
165160,-0.34305727481842,37.1783698802573
165260,-0.343678742647171,36.7647708280443
165370,-0.34243580698967,36.9485896906998
165480,-0.342642962932587,36.856673648134
165590,-0.34305727481842,36.7188095011424
165700,-0.34160715341568,37.1324085533553
165810,-0.34305727481842,36.9485830794618
165920,-0.34243580698967,37.0404925107895
166030,-0.34243580698967,37.1783566577812
166140,-0.342021465301514,37.3162274160108
166250,-0.34160715341568,37.637917036896
166360,-0.343471586704254,37.5460076055682
166470,-0.341814309358597,37.7298330794618
166580,-0.342228621244431,37.7757944063637
166680,-0.343471586704254,37.5919755437082
166790,-0.342228621244431,37.8217557332656
166900,-0.342642962932587,37.9136651645934
167010,-0.34305727481842,37.8217557332656
167120,-0.342228621244431,37.7298463019379
167230,-0.34305727481842,37.6379368706101
167340,-0.341814309358597,38.0515359228231
167450,-0.342850118875504,38.0055812071592
167560,-0.343471586704254,38.0055812071592
167670,-0.342850118875504,37.7758010176018
167780,-0.344300240278244,37.2243312071592
167890,-0.342642962932587,37.3621953541508
167990,-0.34305727481842,37.1324151645934
168100,-0.344093084335327,36.7647708280443
168210,-0.342850118875504,36.8566802593721
168320,-0.344093084335327,36.4890359228231
168430,-0.342642962932587,36.4430812071592
168540,-0.34243580698967,36.6269000698147
168650,-0.341814309358597,37.1324151645934
168760,-0.342642962932587,37.0864604489295
168870,-0.343264430761337,36.8107255437082
168980,-0.343264430761337,36.4890359228231
169090,-0.342228621244431,36.7188161123805
169200,-0.343264430761337,36.8566868706101
169310,-0.341814309358597,37.1324217758314
169410,-0.343471586704254,36.9486029131759
169520,-0.342021465301514,37.2243378183972
169630,-0.344300240278244,36.6728680079546
169740,-0.34243580698967,36.4890425340611
169850,-0.343264430761337,36.534997249725
169960,-0.34243580698967,36.8566868706101
170070,-0.34305727481842,36.902641586274
170180,-0.343471586704254,36.7188227236185
170290,-0.34243580698967,36.7647774392824
170400,-0.342228621244431,36.7647774392824
170510,-0.34243580698967,36.902641586274
170620,-0.342642962932587,36.9485963019379
170720,-0.344093084335327,36.8566802593721
170830,-0.343471586704254,36.8566802593721
170940,-0.342228621244431,37.0864604489295
171050,-0.342850118875504,36.8566802593721
171160,-0.342228621244431,36.9945510176018
171270,-0.342228621244431,37.1324217758314
171380,-0.34243580698967,37.0864604489295
171490,-0.342228621244431,37.0864604489295
171600,-0.34305727481842,37.1783698802573
171710,-0.343264430761337,37.1783698802573
171820,-0.343264430761337,37.0405057332656
171930,-0.342228621244431,37.0864670601676
172040,-0.34077849984169,37.4541180079546
172140,-0.34305727481842,37.3622085766269
172250,-0.343471586704254,37.2243444296353
172360,-0.34243580698967,37.1783831027333
172470,-0.343264430761337,37.0405189557417
172580,-0.342021465301514,37.2243444296353
172690,-0.34305727481842,37.2243444296353
172800,-0.342021465301514,37.1324349983075
172910,-0.341814309358597,37.3162604722011
173020,-0.342021465301514,37.6839048087501
173130,-0.343471586704254,37.6839048087501
173240,-0.34243580698967,37.5919887661843
173350,-0.342642962932587,37.6379434818482
173450,-0.343264430761337,37.5000793348566
173560,-0.343264430761337,37.3162604722011
173670,-0.341814309358597,37.5919953774224
173780,-0.341814309358597,37.9136849983075
173890,-0.343264430761337,37.729866135652
174000,-0.34388592839241,37.6839048087501
174110,-0.341192841529846,37.9596397139714
174220,-0.342850118875504,38.097503860963
174330,-0.342850118875504,37.9136783870695
174440,-0.343678742647171,37.8677236714056
174550,-0.342850118875504,37.7758142400779
174660,-0.34305727481842,37.4541246191927
174770,-0.343471586704254,37.3622151878649
174870,-0.34305727481842,37.2703057565372
174980,-0.342642962932587,37.3622151878649
175090,-0.343264430761337,37.0405255669798
175200,-0.342642962932587,37.3162604722011
175310,-0.342850118875504,37.4541246191927
175420,-0.343471586704254,37.4081699035288
175530,-0.34305727481842,37.4541246191927
175640,-0.341192841529846,37.7758142400779
175750,-0.342228621244431,37.729859524414
175860,-0.343678742647171,37.6379500930862
175970,-0.342021465301514,37.8677302826436
176080,-0.343264430761337,37.5460406617585
176180,-0.342642962932587,37.5460406617585
176290,-0.342228621244431,37.5920019886604
176400,-0.342021465301514,37.9596463252094
176510,-0.342642962932587,38.0975104722011
176620,-0.34243580698967,38.0975104722011
176730,-0.342850118875504,38.3272906617585
176840,-0.342850118875504,38.4651548087501
176950,-0.342642962932587,38.5570642400779
177060,-0.34388592839241,38.2353746191927
177170,-0.343471586704254,37.9596397139714
177280,-0.342850118875504,37.8217689557417
177390,-0.343471586704254,37.5460340505204
177500,-0.342642962932587,37.6838981975121
177600,-0.343264430761337,37.9596331027333
177710,-0.342850118875504,37.8677236714056
177820,-0.342850118875504,37.7758142400779
177930,-0.34305727481842,37.4541246191927
178040,-0.342642962932587,37.4081699035288
178150,-0.343264430761337,37.5000793348566
178260,-0.343678742647171,37.1324349983075
178370,-0.343264430761337,37.4541246191927
178480,-0.343264430761337,37.3162604722011
178590,-0.342850118875504,37.1783897139714
178700,-0.342642962932587,37.316253860963
178810,-0.34305727481842,37.1324283870695
178910,-0.341814309358597,37.2243378183972
179020,-0.343471586704254,36.9945642400779
179130,-0.342850118875504,37.0405189557417
179240,-0.343471586704254,37.0864736714056
179350,-0.343264430761337,36.9026548087501
179460,-0.343264430761337,36.7647906617585
179570,-0.34243580698967,36.9026548087501
179680,-0.342228621244431,36.7647906617585
179790,-0.341399997472763,37.1324349983075
179900,-0.34305727481842,36.9945708513159
180010,-0.343471586704254,36.7647972729965
180120,-0.342021465301514,36.7647972729965
180230,-0.34243580698967,36.580971799103
180330,-0.342228621244431,36.8567067043243
180440,-0.342850118875504,36.6269265147669
180550,-0.342642962932587,36.5350104722011
180660,-0.34305727481842,36.6269199035288
180770,-0.342642962932587,36.535003860963
180880,-0.342021465301514,36.6728746191927
180990,-0.342850118875504,36.7188293348566
181100,-0.34388592839241,36.3511783870695
181210,-0.342850118875504,36.3971331027333
181320,-0.342021465301514,36.3511783870695
181430,-0.34305727481842,36.3052236714056
181540,-0.343264430761337,36.3511783870695
181640,-0.342642962932587,36.3971331027333
181750,-0.342228621244431,36.8566934818482
181860,-0.343264430761337,36.7188293348566
181970,-0.342228621244431,36.9026548087501
182080,-0.343264430761337,37.0864802826436
182190,-0.34305727481842,37.0405255669798
182300,-0.342228621244431,37.4541312304307
182410,-0.343678742647171,37.2243576521114
182520,-0.342642962932587,37.1784029364475
182630,-0.34305727481842,36.9026680312262
182740,-0.343264430761337,36.7648038842346
182850,-0.342228621244431,36.994584073792
182960,-0.343678742647171,36.9026746424642
183060,-0.34243580698967,36.8567133155623
183170,-0.342228621244431,37.0864935051197
183280,-0.34243580698967,36.9486227468901
183390,-0.343264430761337,36.9945774625539
183500,-0.34388592839241,36.580971799103
183610,-0.34305727481842,36.8567067043243
183720,-0.340571343898773,37.2703123677752
183830,-0.342850118875504,37.362221799103
183940,-0.34305727481842,37.2243576521114
184050,-0.342642962932587,37.3162670834391
184160,-0.341814309358597,37.6839114199882
184270,-0.344507396221161,37.2243576521114
184370,-0.343264430761337,36.9945774625539
184480,-0.342850118875504,36.9026680312262
184590,-0.34243580698967,36.9486227468901
184700,-0.342850118875504,37.2243576521114
184810,-0.343678742647171,37.1784029364475
184920,-0.34243580698967,37.1324416095456
185030,-0.343678742647171,36.9486227468901
185140,-0.342228621244431,36.9486227468901
185250,-0.343264430761337,36.7188425573327
185360,-0.34160715341568,36.9026680312262
185470,-0.34305727481842,36.7188425573327
185580,-0.341814309358597,36.9945774625539
185690,-0.343678742647171,36.9026680312262
185790,-0.342021465301514,37.1784029364475
185900,-0.342850118875504,37.0405321782178
186010,-0.34243580698967,36.6728812304307
186120,-0.343264430761337,36.6269265147669
186230,-0.34243580698967,36.8567000930862
186340,-0.343264430761337,36.6728812304307
186450,-0.34305727481842,36.7188359460946
186560,-0.343264430761337,36.4431010408733
186670,-0.342642962932587,36.5350104722011
186780,-0.342850118875504,36.3511849983075
186890,-0.343264430761337,36.0294953774224
187000,-0.342850118875504,35.8456699035288
187100,-0.343678742647171,35.7997151878649
187210,-0.343471586704254,35.5699416095456
187320,-0.343264430761337,35.4320774625539
187430,-0.342850118875504,35.5239868938817
187540,-0.341399997472763,35.9375859460946
187650,-0.341192841529846,36.0754500930862
187760,-0.34388592839241,35.6158897139714
187870,-0.342850118875504,35.7077991452991
187980,-0.342642962932587,35.9835340505204
188090,-0.342228621244431,35.7537604722011
188200,-0.34243580698967,35.8456699035288
188310,-0.341399997472763,36.167359524414
188420,-0.342021465301514,36.535003860963
188520,-0.342850118875504,36.535003860963
188630,-0.343264430761337,36.4890491452991
188740,-0.34305727481842,36.5809585766269
188850,-0.343678742647171,36.4430944296353
188960,-0.342642962932587,36.4430944296353
189070,-0.34305727481842,36.4890491452991
189180,-0.343471586704254,36.3052302826436
189290,-0.343264430761337,36.2133208513159
189400,-0.343678742647171,36.167366135652
189510,-0.34388592839241,35.9835406617585
189620,-0.342021465301514,35.799721799103
189730,-0.342021465301514,35.8456765147669
189830,-0.343471586704254,35.8916312304307
189940,-0.34305727481842,35.6618510408733
190050,-0.342021465301514,35.9375859460946
190160,-0.342228621244431,36.0295019886604
190270,-0.343471586704254,35.7537670834391
190380,-0.342642962932587,35.6158963252094
190490,-0.34243580698967,35.6618510408733
190600,-0.343264430761337,35.4780321782178
190710,-0.343264430761337,35.3861227468901
190820,-0.34243580698967,35.4780321782178
190930,-0.34305727481842,35.3861227468901
191040,-0.341814309358597,35.8456831260049
191150,-0.343264430761337,35.8916378416688
191250,-0.343678742647171,35.7078189790133
191360,-0.342850118875504,35.8456831260049
191470,-0.342850118875504,35.799728410341
191580,-0.343264430761337,35.799728410341
191690,-0.34305727481842,35.7537736946772
191800,-0.345128864049912,35.2482652111365
191910,-0.34243580698967,35.3861293581281
192020,-0.34305727481842,35.2942199268004
192130,-0.34243580698967,35.4780387894559
192240,-0.343471586704254,35.5239935051197
192350,-0.34243580698967,35.7078123677752
192460,-0.343264430761337,35.7078123677752
192560,-0.342228621244431,35.8456831260049
192670,-0.343264430761337,35.7078189790133
192780,-0.343678742647171,35.5699548320217
192890,-0.342228621244431,35.4780454006939
193000,-0.342850118875504,35.6159095476855
193110,-0.343471586704254,35.4780454006939
193220,-0.341814309358597,35.8456897372429
193330,-0.343471586704254,35.7997350215791
193440,-0.343264430761337,35.7997350215791
193550,-0.342021465301514,35.8916510641449
193660,-0.34305727481842,35.7078255902513
193770,-0.343264430761337,35.2942265380384
193880,-0.343678742647171,35.1563623910468
193980,-0.34305727481842,35.2482718223745
194090,-0.342850118875504,35.064446348481
194200,-0.342642962932587,35.0184916328171
194310,-0.342642962932587,34.9265755902513
194420,-0.344093084335327,34.65084068503
194530,-0.342642962932587,34.65084068503
194640,-0.34243580698967,34.7887048320217
194750,-0.34388592839241,34.5129699268004
194860,-0.342021465301514,34.5129699268004
194970,-0.343471586704254,34.3751057798087
195080,-0.34305727481842,34.5589312537023
195190,-0.34243580698967,34.65084068503
195290,-0.342850118875504,34.4670152111365
195400,-0.34243580698967,34.6048793581281
195510,-0.342850118875504,34.6967887894559
195620,-0.342228621244431,34.7887048320217
195730,-0.342642962932587,34.6967887894559
195840,-0.342850118875504,34.7886982207836
195950,-0.342642962932587,34.6967821782178
196060,-0.343471586704254,34.6508274625539
196170,-0.342642962932587,34.7427368938817
196280,-0.34305727481842,34.5589114199882
196390,-0.342850118875504,34.7427302826436
196500,-0.342228621244431,34.8346463252094
196610,-0.342228621244431,35.018471799103
196710,-0.342642962932587,35.1563359460946
196820,-0.34243580698967,35.1103746191927
196930,-0.34388592839241,35.0644132922908
197040,-0.342850118875504,34.972503860963
197150,-0.34243580698967,34.9265425340611
197260,-0.34243580698967,34.9265425340611
197370,-0.342850118875504,35.0184519653888
197480,-0.34388592839241,35.0184519653888
197590,-0.34305727481842,35.0184519653888
197700,-0.342642962932587,34.558891586274
197810,-0.342642962932587,34.6048463019379
197920,-0.34305727481842,34.6048463019379
198020,-0.343471586704254,34.4210274392824
198130,-0.342850118875504,34.191247249725
198240,-0.342850118875504,34.558891586274
198350,-0.342642962932587,34.6967557332656
198460,-0.343678742647171,34.5129368706101
198570,-0.342021465301514,34.6048529131759
198680,-0.344300240278244,34.2831632922908
198790,-0.343264430761337,34.3750727236185
198900,-0.34243580698967,34.3750727236185
199010,-0.343471586704254,34.4210274392824
199120,-0.343264430761337,34.191247249725
199230,-0.34388592839241,34.0533764914953
199340,-0.34160715341568,34.0533764914953
199440,-0.34305727481842,34.0533764914953
199550,-0.343264430761337,33.7316868706101
199660,-0.34305727481842,33.8695510176018
199770,-0.342021465301514,33.8695510176018
199880,-0.343471586704254,33.7316868706101
199990,-0.342642962932587,33.6857321549463
200100,-0.343471586704254,33.6397774392824
200210,-0.344714552164078,33.1342689557417
200320,-0.342850118875504,33.2261783870695
200430,-0.342850118875504,33.2721331027333
200540,-0.345128864049912,32.8585340505204
200650,-0.344507396221161,32.4449349983075
200750,-0.34243580698967,32.5368444296353
200860,-0.342850118875504,32.628753860963
200970,-0.343471586704254,32.4908897139714
201080,-0.342021465301514,32.8585340505204
201190,-0.342642962932587,33.0423529131759
201300,-0.342850118875504,33.1342623445037
201410,-0.34388592839241,32.9044821549463
201520,-0.34243580698967,32.6747019653888
201630,-0.343471586704254,32.1691934818482
201740,-0.341814309358597,32.628753860963
201850,-0.343471586704254,32.4908897139714
201960,-0.344093084335327,32.1692000930862
202070,-0.343678742647171,31.8475104722011
202170,-0.341814309358597,31.9853812304307
202280,-0.34305727481842,31.6177368938817
202390,-0.344093084335327,31.1581765147669
202500,-0.343678742647171,30.9743576521114
202610,-0.343264430761337,30.9743576521114
202720,-0.342228621244431,31.1581831260049
202830,-0.343471586704254,31.2041378416688
202940,-0.343264430761337,31.0662736946772
203050,-0.343678742647171,30.9284095476855
203160,-0.343471586704254,30.9284095476855
203270,-0.34243580698967,31.112228410341
203380,-0.343471586704254,31.1581831260049
203480,-0.34305727481842,31.3420085998985
203590,-0.343471586704254,31.0203189790133
203700,-0.34243580698967,30.9284029364475
203810,-0.342850118875504,31.0662670834391
203920,-0.34305727481842,31.0662670834391
204030,-0.342228621244431,31.0203123677752
204140,-0.345128864049912,30.3769331260049
204250,-0.342228621244431,30.6526680312262
204360,-0.342850118875504,30.6067133155623
204470,-0.34388592839241,30.2850236946772
204580,-0.343264430761337,30.2850236946772
204690,-0.34305727481842,30.330978410341
204800,-0.34243580698967,30.330978410341
204900,-0.342642962932587,30.4228878416688
205010,-0.343471586704254,30.0552435051197
205120,-0.343678742647171,29.963334073792
205230,-0.342021465301514,30.330978410341
205340,-0.342021465301514,30.5148038842346
205450,-0.342642962932587,30.5607585998985
205560,-0.34160715341568,30.9284029364475
205670,-0.34305727481842,30.9284029364475
205780,-0.342850118875504,31.4339114199882
205890,-0.34243580698967,31.4339114199882
206000,-0.343471586704254,31.3420019886604
206110,-0.341814309358597,31.4798727468901
206210,-0.342850118875504,31.6177368938817
206320,-0.34243580698967,31.6177368938817
206430,-0.342850118875504,31.7096463252094
206540,-0.344300240278244,31.2500859460946
206650,-0.343264430761337,31.2500859460946
206760,-0.343678742647171,31.2500859460946
206870,-0.34243580698967,31.2041246191927
206980,-0.342850118875504,31.2041246191927
207090,-0.342642962932587,31.3879434818482
207200,-0.34388592839241,30.9283831027333
207310,-0.343471586704254,30.9283831027333
207420,-0.344093084335327,30.7445576288398
207530,-0.34388592839241,30.3309519653888
207630,-0.342021465301514,30.5607321549463
207740,-0.343264430761337,30.5607321549463
207850,-0.344093084335327,30.4688161123805
207960,-0.342228621244431,30.652641586274
208070,-0.34305727481842,30.6066868706101
208180,-0.34305727481842,30.5147774392824
208290,-0.343264430761337,30.3769132922908
208400,-0.342642962932587,30.6986029131759
208510,-0.342850118875504,30.6526481975121
208620,-0.342642962932587,30.6066934818482
208730,-0.342228621244431,30.9743444296353
208840,-0.342228621244431,30.9283897139714
208940,-0.342850118875504,31.066253860963
209050,-0.34305727481842,31.066253860963
209160,-0.343471586704254,30.8364802826436
209270,-0.34305727481842,30.7905255669798
209380,-0.342021465301514,30.8824416095456
209490,-0.342850118875504,30.8824416095456
209600,-0.343264430761337,30.6526614199882
209710,-0.342850118875504,30.6067067043243
209820,-0.343471586704254,30.4688425573327
209930,-0.342021465301514,30.6067133155623
210040,-0.343678742647171,30.5607585998985
210150,-0.342642962932587,30.5607585998985
210260,-0.342850118875504,30.6067133155623
210360,-0.34243580698967,30.6986227468901
210470,-0.344093084335327,30.2850170834391
210580,-0.342021465301514,30.330971799103
210690,-0.343264430761337,30.1931076521114
210800,-0.34388592839241,29.8714180312262
210910,-0.343264430761337,30.0092887894559
211020,-0.344093084335327,29.7335538842346
211130,-0.343678742647171,29.4578255902513
211240,-0.343264430761337,29.2740067275958
211350,-0.343264430761337,29.1820972962681
211460,-0.343264430761337,29.3199680544978
211570,-0.34305727481842,29.3199680544978
211670,-0.343264430761337,29.1821039075061
211780,-0.34305727481842,29.0901944761784
211890,-0.341814309358597,29.3659293813997
212000,-0.342850118875504,29.5037935283913
212110,-0.34305727481842,29.4578388127274
212220,-0.34243580698967,29.5497482440552
212330,-0.34243580698967,29.595702959719
212440,-0.342228621244431,29.9173925806042
212550,-0.343264430761337,29.6416576753829
212660,-0.34243580698967,30.0552567275958
212770,-0.342642962932587,30.1931208745875
212880,-0.342021465301514,30.2850369171533
212990,-0.343471586704254,30.2850369171533
213090,-0.342850118875504,30.376946348481
213200,-0.34388592839241,30.376946348481
213310,-0.343471586704254,29.9633472962681
213420,-0.344300240278244,29.6876123910468
213530,-0.34243580698967,29.8714312537023
213640,-0.34243580698967,30.0092954006939
213750,-0.342642962932587,29.8714246424642
213860,-0.344093084335327,29.7335538842346
213970,-0.344093084335327,29.4118642633494
214080,-0.342021465301514,29.7335538842346
214190,-0.342228621244431,30.2850236946772
214300,-0.343678742647171,30.1012048320217
214400,-0.342850118875504,30.1012048320217
214510,-0.342228621244431,30.744584073792
214620,-0.342850118875504,31.112228410341
214730,-0.343678742647171,30.8365001163578
214840,-0.343678742647171,30.6526812537023
214950,-0.341814309358597,31.0203255902513
215060,-0.343678742647171,30.6526812537023
215170,-0.342228621244431,30.7445972962681
215280,-0.342850118875504,30.7445972962681
215390,-0.342228621244431,31.1122482440552
215500,-0.34243580698967,31.1122482440552
215610,-0.34243580698967,31.3420218223745
215720,-0.342850118875504,31.1122416328171
215820,-0.34305727481842,31.2041510641449
215930,-0.343264430761337,31.3879765380384
216040,-0.343471586704254,31.4339312537023
216150,-0.342850118875504,31.2041510641449
216260,-0.34243580698967,31.3420152111365
216370,-0.342850118875504,31.6177501163578
216480,-0.34243580698967,31.893478410341
216590,-0.343471586704254,31.8475236946772
216700,-0.34243580698967,31.8015623677752
216810,-0.342642962932587,31.9853812304307
216920,-0.34243580698967,32.1692000930862
217030,-0.343264430761337,32.261109524414
217130,-0.34305727481842,32.3530189557417
217240,-0.343678742647171,32.0772906617585
217350,-0.342850118875504,32.2151548087501
217460,-0.34243580698967,32.3530189557417
217570,-0.34388592839241,32.2611029131759
217680,-0.34305727481842,32.1232387661843
217790,-0.343264430761337,32.0313293348566
217900,-0.34243580698967,32.1691934818482
218010,-0.343678742647171,31.847503860963
218120,-0.342021465301514,32.5368378183972
218230,-0.34243580698967,32.4908764914953
218340,-0.34243580698967,32.5827859228231
218450,-0.342021465301514,32.996391586274
218550,-0.341814309358597,33.3180812071592
218660,-0.343264430761337,33.2721264914953
218770,-0.344300240278244,32.8585274392824
218880,-0.343471586704254,32.6747085766269
218990,-0.34305727481842,32.7666180079546
219100,-0.343264430761337,32.8585274392824
219210,-0.343264430761337,32.5827925340611
219320,-0.343471586704254,32.2611029131759
219430,-0.342642962932587,32.2611029131759
219540,-0.342642962932587,32.0313227236185
219650,-0.343264430761337,31.9853680079546
219760,-0.34243580698967,32.0772774392824
219860,-0.342850118875504,31.9853680079546
219970,-0.34243580698967,32.215141586274
220080,-0.342850118875504,31.9853613967166
220190,-0.342021465301514,32.1691868706101
220300,-0.34305727481842,32.0313227236185
220410,-0.344093084335327,31.7555878183972
220520,-0.343264430761337,31.9853680079546
220630,-0.342642962932587,32.1232321549463
220740,-0.34388592839241,32.0772708280443
220850,-0.343264430761337,31.8934519653888
220960,-0.343678742647171,31.7096331027333
221070,-0.34243580698967,31.7555878183972
221180,-0.34243580698967,32.0772774392824
221280,-0.343678742647171,32.0313227236185
221390,-0.342642962932587,32.3530123445037
221500,-0.343678742647171,32.3989736714056
221610,-0.342642962932587,32.2611029131759
221720,-0.34243580698967,32.4449217758314
221830,-0.34160715341568,32.996391586274
221940,-0.342228621244431,32.996391586274
222050,-0.342850118875504,33.0423463019379
222160,-0.343264430761337,32.996391586274
222270,-0.34243580698967,33.1802104489295
222380,-0.342850118875504,33.1342557332656
222490,-0.34160715341568,33.4099906384869
222590,-0.342642962932587,33.4099906384869
222700,-0.343264430761337,33.1802104489295
222810,-0.342228621244431,33.1802104489295
222920,-0.344300240278244,32.8585208280443
223030,-0.34305727481842,32.8585208280443
223140,-0.343678742647171,32.8125661123805
223250,-0.344093084335327,32.5827859228231
223360,-0.341814309358597,32.6287406384869
223470,-0.34305727481842,32.5827859228231
223580,-0.342642962932587,32.7206500698147
223690,-0.342228621244431,32.8585208280443
223800,-0.342850118875504,32.996384975036
223910,-0.343471586704254,32.6746953541508
224010,-0.342642962932587,32.9044689324702
224120,-0.34305727481842,32.8125595011424
224230,-0.340985685586929,33.2261585533553
224340,-0.34388592839241,32.9044689324702
224450,-0.34243580698967,33.2721132690192
224560,-0.342642962932587,33.1342425107895
224670,-0.342228621244431,33.364022700347
224780,-0.34305727481842,33.5478481742405
224890,-0.34305727481842,33.5938028899044
225000,-0.34388592839241,33.6397576055682
225110,-0.343471586704254,33.6857123212321
225220,-0.342850118875504,33.7776217525599
225320,-0.342850118875504,33.8695311838876
225430,-0.343264430761337,33.8695311838876
225540,-0.34388592839241,33.6857057099941
225650,-0.34305727481842,33.731660425658
225760,-0.342228621244431,33.9154858995515
225870,-0.34388592839241,33.4559255204367
225980,-0.343471586704254,33.318061373445
226090,-0.343264430761337,33.2721066577812
226200,-0.342642962932587,33.2261519421173
226310,-0.343678742647171,32.950423648134
226420,-0.342642962932587,32.8585076055682
226530,-0.344300240278244,32.6287274160108
226640,-0.34305727481842,32.4908632690192
226740,-0.343678742647171,32.2610896906998
226850,-0.34305727481842,32.0313095011424
226960,-0.34305727481842,32.1232189324702
227070,-0.34305727481842,32.0772642168063
227180,-0.343678742647171,32.1232255437082
227290,-0.344093084335327,31.9853547854785
227400,-0.343471586704254,32.1691802593721
227510,-0.343678742647171,31.8934519653888
227620,-0.342228621244431,31.9394132922908
227730,-0.343471586704254,31.7555944296353
227840,-0.343678742647171,31.8475104722011
227950,-0.342021465301514,32.3070708513159
228050,-0.342642962932587,32.1692000930862
228160,-0.342228621244431,32.1692000930862
228270,-0.343264430761337,32.261109524414
228380,-0.343471586704254,32.1232453774224
228490,-0.342850118875504,31.9853746191927
228600,-0.34305727481842,31.9394199035288
228710,-0.342228621244431,32.261109524414
228820,-0.34305727481842,32.3989736714056
228930,-0.342850118875504,32.1691934818482
229040,-0.34388592839241,32.1232321549463
229150,-0.342021465301514,32.1691868706101
229260,-0.34160715341568,32.4449217758314
229370,-0.34305727481842,32.2610963019379
229470,-0.342642962932587,32.215141586274
229580,-0.342642962932587,32.1691868706101
229690,-0.343264430761337,32.0772774392824
229800,-0.34388592839241,31.8934519653888
229910,-0.34305727481842,31.9394066810527
230020,-0.342642962932587,32.1232255437082
230130,-0.342850118875504,32.1232255437082
230240,-0.342642962932587,32.0772708280443
230350,-0.344093084335327,31.8015359228231
230460,-0.343471586704254,31.5717623445037
230570,-0.342228621244431,31.847497249725
230680,-0.34305727481842,31.7096331027333
230790,-0.343471586704254,31.5258142400779
230890,-0.342850118875504,31.4339048087501
231000,-0.342642962932587,31.5717689557417
231110,-0.343471586704254,31.479859524414
231220,-0.341399997472763,31.9853680079546
231330,-0.34305727481842,31.9394132922908
231440,-0.342850118875504,31.847503860963
231550,-0.343264430761337,31.9853746191927
231660,-0.34243580698967,32.1232387661843
231770,-0.343264430761337,32.1232387661843
231880,-0.342021465301514,32.2151548087501
231990,-0.342642962932587,32.4449283870695
232100,-0.34160715341568,32.5368378183972
232200,-0.34305727481842,32.3989736714056
232310,-0.343264430761337,32.2151548087501
232420,-0.343264430761337,31.9394199035288
232530,-0.343678742647171,31.5258208513159
232640,-0.343471586704254,31.479866135652
232750,-0.342228621244431,31.9394265147669
232860,-0.34305727481842,32.0313359460946
232970,-0.342021465301514,32.261116135652
233080,-0.342850118875504,32.3530255669798
233190,-0.343471586704254,32.3070708513159
233300,-0.34305727481842,32.3989802826436
233410,-0.342228621244431,32.4908963252094
233520,-0.343471586704254,32.3070774625539
233620,-0.343264430761337,32.3070774625539
233730,-0.343471586704254,32.0773038842346
233840,-0.342642962932587,32.1232585998984
233950,-0.343264430761337,31.939439737243
234060,-0.343264430761337,31.8475303059152
234170,-0.343264430761337,31.5717954006939
234280,-0.342850118875504,31.6177501163578
234390,-0.343678742647171,31.7096661589236
234500,-0.342642962932587,31.8475303059152
234610,-0.342642962932587,31.8475303059152
234720,-0.343471586704254,31.939446348481
234830,-0.34388592839241,31.8015755902513
234930,-0.342021465301514,32.1692199268004
235040,-0.342850118875504,32.0773104954726
235150,-0.343471586704254,31.8475369171533
235260,-0.343471586704254,31.8934916328171
235370,-0.343264430761337,31.7556274858255
235480,-0.34305727481842,31.8934916328171
235590,-0.34305727481842,31.8015822014894
235700,-0.343678742647171,31.5258539075061
235810,-0.34388592839241,31.0203388127274
235920,-0.343471586704254,30.7446039075061
236030,-0.342642962932587,30.79055862317
236140,-0.342228621244431,31.0203388127274
236250,-0.34243580698967,31.0203388127274
236350,-0.342228621244431,31.1582095709571
236460,-0.343471586704254,30.7446105187442
236570,-0.342642962932587,30.7446105187442
236680,-0.342850118875504,30.8365199500719
236790,-0.344300240278244,30.3769595709571
236900,-0.34305727481842,30.6526944761784
237010,-0.342642962932587,30.7446039075061
237120,-0.343678742647171,30.7446039075061
237230,-0.343678742647171,30.8365199500719
237340,-0.342228621244431,30.7446105187442
237450,-0.34388592839241,30.5607850448506
237560,-0.344093084335327,30.2390954239655
237660,-0.342642962932587,30.1471793813997
237770,-0.342850118875504,30.1471793813997
237880,-0.34305727481842,30.2390888127274
237990,-0.34388592839241,29.9633539075061
238100,-0.344714552164078,29.5957095709571
238210,-0.343264430761337,29.0902010874164
238320,-0.343264430761337,29.2280718456461
238430,-0.343264430761337,29.0442529829906
238540,-0.344093084335327,28.7225633621054
238650,-0.342850118875504,28.5846926038758
238760,-0.343471586704254,28.492783172548
238870,-0.343264430761337,28.4468284568841
238980,-0.34388592839241,28.4468284568841
239080,-0.34243580698967,28.6766020352035
239190,-0.342850118875504,28.6766020352035
239300,-0.343264430761337,28.5846926038758
239410,-0.343471586704254,28.5387378882119
239520,-0.342642962932587,28.8144727934332
239630,-0.343471586704254,28.7225633621054
239740,-0.343471586704254,28.4468284568841
239850,-0.34305727481842,28.6306539307777
239960,-0.342642962932587,28.8144727934332
240070,-0.342021465301514,29.0902076986545
240180,-0.343264430761337,28.9523435516629
240290,-0.34305727481842,29.0902076986545
240390,-0.34243580698967,29.1361624143184
240500,-0.342642962932587,29.5038067508674
240610,-0.343264430761337,29.4578520352035
240720,-0.342642962932587,29.6876256135229
240830,-0.342228621244431,29.8714510874164
240940,-0.34243580698967,30.0093152344081
241050,-0.343264430761337,29.9633605187442
241160,-0.344093084335327,29.8714444761784
241270,-0.343471586704254,30.0093152344081
241380,-0.34305727481842,30.1012246657358
241490,-0.342021465301514,30.4688690022848
241600,-0.344093084335327,30.0552633388339
241710,-0.344300240278244,29.8714378649403
241810,-0.343471586704254,29.9173925806042
241920,-0.34388592839241,29.5037869171533
242030,-0.343264430761337,29.3659227701616
242140,-0.342642962932587,29.2740067275958
242250,-0.342642962932587,29.4118708745875
242360,-0.34243580698967,29.6416444529068
242470,-0.342642962932587,29.6875991685707
242580,-0.34243580698967,29.8254633155623
242690,-0.343678742647171,29.5037736946772
242800,-0.343264430761337,29.4578189790133
242910,-0.34243580698967,29.549728410341
243020,-0.344714552164078,29.3659095476855
243120,-0.343264430761337,29.0901746424642
243230,-0.343264430761337,28.7225303059152
243340,-0.342850118875504,28.7684850215791
243450,-0.343264430761337,28.6306208745875
243560,-0.342850118875504,28.5846661589236
243670,-0.342642962932587,28.7225303059152
243780,-0.343264430761337,28.8604010641449
243890,-0.342021465301514,29.0901812537023
244000,-0.34243580698967,29.1361359693662
244110,-0.34305727481842,29.0901812537023
244220,-0.342850118875504,29.0442265380384
244330,-0.34388592839241,29.0901812537023
244440,-0.34388592839241,28.9982652111365
244540,-0.343264430761337,28.7684850215791
244650,-0.342642962932587,28.8603944529068
244760,-0.342850118875504,28.9982585998985
244870,-0.342642962932587,29.0442133155623
244980,-0.342642962932587,29.0442133155623
245090,-0.345336049795151,28.6306076521114
245200,-0.342642962932587,28.3548727468901
245310,-0.344093084335327,28.1250925573327
245420,-0.34305727481842,28.0791378416688
245530,-0.343264430761337,28.0791378416688
245640,-0.34160715341568,28.2629633155623
245750,-0.34243580698967,28.4467821782178
245850,-0.34243580698967,28.354866135652
245960,-0.342642962932587,28.354866135652
246070,-0.343264430761337,27.987221799103
246180,-0.343471586704254,27.8953123677752
246290,-0.343264430761337,27.8953123677752
246400,-0.344093084335327,27.7114868938817
246510,-0.34305727481842,27.8493510408733
246620,-0.34305727481842,27.9412604722011
246730,-0.342642962932587,27.8493444296353
246840,-0.342642962932587,27.941253860963
246950,-0.342642962932587,27.8033831027333
247060,-0.343264430761337,27.7114736714056
247170,-0.34305727481842,27.8033831027333
247270,-0.343471586704254,27.7114736714056
247380,-0.34388592839241,27.3438227236185
247490,-0.342642962932587,27.527641586274
247600,-0.342642962932587,27.6655057332656
247710,-0.344093084335327,27.527634975036
247820,-0.342642962932587,27.527634975036
247930,-0.342021465301514,27.8033698802573
248040,-0.342228621244431,28.0331500698147
248150,-0.34305727481842,28.0791047854785
248260,-0.343264430761337,27.9871953541508
248370,-0.342850118875504,28.1710142168063
248480,-0.343264430761337,28.0331500698147
248580,-0.343471586704254,27.8493312071592
248690,-0.34305727481842,27.9412406384869
248800,-0.343471586704254,28.0331566810527
248910,-0.34243580698967,27.9412406384869
249020,-0.34305727481842,27.8952859228231
249130,-0.342642962932587,28.0791047854785
249240,-0.342642962932587,28.262923648134
249350,-0.342850118875504,28.3548330794618
249460,-0.34305727481842,28.3548330794618
249570,-0.344300240278244,28.0790981742405
249680,-0.342642962932587,28.3088717525599
249790,-0.341814309358597,28.7684321316747
249900,-0.34305727481842,28.8603415630025
250000,-0.341814309358597,29.044167036896
250110,-0.34305727481842,28.8603415630025
250220,-0.343264430761337,28.676522700347
250330,-0.344714552164078,28.1250528899044
250440,-0.34243580698967,28.3548264682237
250550,-0.342642962932587,28.3548264682237
250660,-0.34243580698967,28.4467358995515
250770,-0.343678742647171,28.5846066577812
250880,-0.341814309358597,28.8603415630025
250990,-0.342021465301514,28.9982123212321
251100,-0.341814309358597,29.411811373445
251210,-0.34243580698967,29.6875396674283
251310,-0.343471586704254,29.411804762207
251420,-0.34305727481842,29.5956302361005
251530,-0.342228621244431,30.0092358995515
251640,-0.34305727481842,29.9173264682237
251750,-0.343471586704254,29.7794623212321
251860,-0.342642962932587,29.8713717525599
251970,-0.343264430761337,30.0092425107895
252080,-0.34305727481842,30.3768868473386
252190,-0.34388592839241,30.2390160891089
252300,-0.344093084335327,30.0551906152154
252410,-0.343471586704254,30.0092358995515
252520,-0.342642962932587,30.3309255204367
252630,-0.343471586704254,30.193061373445
252730,-0.34305727481842,30.2849708047728
252840,-0.343471586704254,30.2390160891089
252950,-0.34305727481842,30.4228415630025
253060,-0.34243580698967,30.4228415630025
253170,-0.342642962932587,30.4687962786663
253280,-0.34243580698967,30.6526151413218
253390,-0.34305727481842,30.7445245726496
253500,-0.343264430761337,30.606660425658
253610,-0.343678742647171,30.5607057099941
253720,-0.342642962932587,30.7445245726496
253830,-0.343678742647171,30.606660425658
253940,-0.34388592839241,30.3309255204367
254040,-0.341814309358597,30.3768802361005
254150,-0.343264430761337,30.3768802361005
254260,-0.34305727481842,30.3768802361005
254370,-0.342850118875504,30.2849708047728
254480,-0.342642962932587,30.2849708047728
254590,-0.342228621244431,30.5147509943302
254700,-0.34305727481842,30.4228415630025
254810,-0.343471586704254,30.1471066577812
254920,-0.34243580698967,30.1471066577812
255030,-0.342850118875504,30.2390160891089
255140,-0.342850118875504,30.5147509943302
255250,-0.34305727481842,30.606660425658
255360,-0.343264430761337,30.5607057099941
255460,-0.34388592839241,30.1471000465431
255570,-0.344507396221161,30.0551906152154
255680,-0.342850118875504,30.3768802361005
255790,-0.344093084335327,30.2390094778709
255900,-0.342021465301514,30.6526151413218
256010,-0.342850118875504,30.7445245726496
256120,-0.34305727481842,30.6526151413218
256230,-0.344300240278244,30.2849708047728
256340,-0.342642962932587,30.2390160891089
256450,-0.342642962932587,30.2390160891089
256560,-0.341814309358597,30.3768868473386
256670,-0.343264430761337,30.4687962786663
256770,-0.343678742647171,30.3768868473386
256880,-0.34305727481842,30.239022700347
256990,-0.34305727481842,30.606667036896
257100,-0.342228621244431,30.8364472264534
257210,-0.342021465301514,31.1121821316747
257320,-0.342850118875504,31.1121821316747
257430,-0.34388592839241,30.974311373445
257540,-0.342642962932587,31.0202660891089
257650,-0.344093084335327,30.6985764682237
257760,-0.342228621244431,30.9283566577812
257870,-0.34243580698967,30.8364406152154
257980,-0.342021465301514,30.9283566577812
258090,-0.342228621244431,31.1121821316747
258190,-0.34305727481842,31.0662274160108
258300,-0.343471586704254,31.1581434585766
258410,-0.343471586704254,31.2500595011424
258520,-0.34243580698967,31.4338783637979
258630,-0.342850118875504,31.387923648134
258740,-0.343264430761337,31.2960142168063
258850,-0.343471586704254,31.1121953541508
258960,-0.343678742647171,30.8824217758314
259070,-0.343264430761337,31.3419821549463
259180,-0.344507396221161,30.9283831027333
259290,-0.34243580698967,31.2960274392824
259400,-0.343471586704254,31.2041180079546
259500,-0.342021465301514,31.4798529131759
259610,-0.342642962932587,31.2500727236185
259720,-0.342642962932587,31.2041180079546
259830,-0.343678742647171,30.9283897139714
259940,-0.343471586704254,30.7445708513159
260050,-0.343678742647171,30.6526614199882
260160,-0.342228621244431,30.9283963252094
260270,-0.343678742647171,30.8364868938817
260380,-0.343678742647171,30.9284029364475
260490,-0.344507396221161,30.6067133155623
260600,-0.343264430761337,30.5607585998985
260710,-0.342850118875504,30.5148038842346
260820,-0.342021465301514,30.6526746424642
260920,-0.343264430761337,30.5148104954726
261030,-0.343264430761337,30.5148104954726
261140,-0.344093084335327,30.2850303059152
261250,-0.34305727481842,30.376939737243
261360,-0.343678742647171,30.4229010641449
261470,-0.343678742647171,30.1931274858255
261580,-0.342642962932587,30.1931274858255
261690,-0.343678742647171,30.2850435283913
261800,-0.342850118875504,30.2390888127274
261910,-0.34388592839241,29.8254831492765
262020,-0.344300240278244,29.3659227701616
262130,-0.343471586704254,29.2740133388339
262230,-0.34305727481842,29.3199680544978
262340,-0.34243580698967,29.4118774858255
262450,-0.343264430761337,29.4118774858255
262560,-0.34243580698967,29.6416510641449
262670,-0.342642962932587,29.7335604954726
262780,-0.345128864049912,29.3659161589236
262890,-0.342642962932587,29.3199614432597
263000,-0.343471586704254,29.228052011932
263110,-0.342642962932587,29.228052011932
263220,-0.34305727481842,29.1361425806042
263330,-0.341814309358597,29.3659227701616
263440,-0.343471586704254,29.2740133388339
263550,-0.34388592839241,29.3659227701616
263650,-0.342642962932587,29.3659227701616
263760,-0.343678742647171,28.9523237179487
263870,-0.343471586704254,28.860414286621
263980,-0.342228621244431,28.7685048552932
264090,-0.344300240278244,28.4927699500719
264200,-0.342850118875504,28.5846793813997
264310,-0.34388592839241,28.7684982440552
264420,-0.34305727481842,28.6306340970636
264530,-0.344093084335327,28.3089444761784
264640,-0.343264430761337,28.1251256135229
264750,-0.34305727481842,28.2629897605145
264860,-0.34305727481842,27.9872548552932
264960,-0.343678742647171,27.6196105187442
265070,-0.343471586704254,27.2519661821951
265180,-0.343264430761337,27.0681473195396
265290,-0.344507396221161,26.8383671299822
265400,-0.343678742647171,26.7005029829906
265510,-0.343678742647171,26.3788133621054
265620,-0.342850118875504,26.4247680777693
265730,-0.343471586704254,26.4247680777693
265840,-0.343678742647171,26.1949944994499
265950,-0.344300240278244,25.9652143098925
266060,-0.344507396221161,25.6435246890074
266170,-0.34305727481842,25.8273501629009
266280,-0.343264430761337,26.0111756367944
266380,-0.342850118875504,26.1490397837861
266490,-0.342642962932587,26.1490397837861
266600,-0.344507396221161,25.9192595942287
266710,-0.343678742647171,25.781395447237
266820,-0.343264430761337,25.8273501629009
266930,-0.34305727481842,25.8273501629009
267040,-0.343678742647171,25.5516218689177
267150,-0.342850118875504,25.5056671532538
267260,-0.343678742647171,25.2299388592705
267370,-0.342021465301514,25.459719048828
267480,-0.343264430761337,25.459719048828
267590,-0.34388592839241,25.413757721926
267690,-0.343264430761337,25.2758935749344
267800,-0.342850118875504,25.4597124375899
267910,-0.342021465301514,25.8733181010409
268020,-0.342850118875504,25.6435379114835
268130,-0.34305727481842,25.6894926271473
268240,-0.343264430761337,25.6435379114835
268350,-0.343471586704254,25.5056737644918
268460,-0.343471586704254,25.3218549018363
268570,-0.342850118875504,25.1839841436067
268680,-0.342228621244431,25.3678096175002
268790,-0.342021465301514,25.6894992383854
268900,-0.343678742647171,25.4137709444021
269010,-0.342850118875504,25.4137709444021
269110,-0.34305727481842,25.3678162287383
269220,-0.342642962932587,25.459725660066
269330,-0.342228621244431,25.6895058496234
269440,-0.34305727481842,25.873331323517
269550,-0.344093084335327,25.9652407548447
269660,-0.343678742647171,25.7814218921892
269770,-0.34243580698967,26.1490662287383
269880,-0.343471586704254,25.8273766078531
269990,-0.343678742647171,25.6435577451976
270100,-0.342850118875504,25.6895124608615
270210,-0.342850118875504,26.0112020817466
270320,-0.34388592839241,25.7354671765253
270420,-0.34388592839241,25.4597322713041
270530,-0.343471586704254,25.092087934755
270640,-0.343264430761337,25.092087934755
270750,-0.342021465301514,25.4597322713041
270860,-0.342642962932587,25.5516417026318
270970,-0.343471586704254,25.4597322713041
271080,-0.34388592839241,25.092081323517
271190,-0.344093084335327,24.6325209444021
271300,-0.342850118875504,24.6325209444021
271410,-0.343678742647171,24.6784822713041
271520,-0.342021465301514,24.8163530295337
271630,-0.342642962932587,25.1380426504189
271740,-0.343471586704254,24.8623077451976
271840,-0.343264430761337,24.6784888825421
271950,-0.343471586704254,24.3567992616569
272060,-0.34305727481842,24.1729737877634
272170,-0.34305727481842,24.1729737877634
272280,-0.343678742647171,24.1270190720995
272390,-0.34243580698967,24.3567926504189
272500,-0.343678742647171,24.0810643564356
272610,-0.343471586704254,23.943200209444
272720,-0.343678742647171,23.8512907781163
272830,-0.343471586704254,23.8512907781163
272940,-0.34305727481842,23.9891549251079
273050,-0.34243580698967,24.1729737877634
273150,-0.34243580698967,24.6325275556402
273260,-0.342642962932587,24.5865728399763
273370,-0.343264430761337,24.6325275556402
273480,-0.34305727481842,24.4027473660828
273590,-0.34243580698967,24.4487020817466
273700,-0.343471586704254,24.2648832190911
273810,-0.342642962932587,24.4946567974105
273920,-0.343264430761337,24.5406115130744
274030,-0.343264430761337,24.6325209444021
274140,-0.342850118875504,24.4946501861725
274250,-0.34305727481842,24.6325143331641
274360,-0.343264430761337,24.7244237644918
274470,-0.343471586704254,24.9542039540493
274570,-0.34305727481842,25.0001586697131
274680,-0.34305727481842,24.9542039540493
274790,-0.343264430761337,24.678469048828
274900,-0.34305727481842,24.7244237644918
275010,-0.342642962932587,24.8622879114835
275120,-0.342850118875504,25.1380228167047
275230,-0.34160715341568,25.4597124375899
275340,-0.34305727481842,25.5975765845815
275450,-0.342850118875504,25.781395447237
275560,-0.34305727481842,25.6894860159093
275670,-0.342850118875504,25.8733048785648
275780,-0.344093084335327,25.5975699733435
275880,-0.34305727481842,25.781395447237
275990,-0.343678742647171,25.9192662054667
276100,-0.34243580698967,26.1490397837861
276210,-0.342850118875504,26.1949944994499
276320,-0.342228621244431,26.2409558263519
276430,-0.34305727481842,26.2869105420157
276540,-0.34388592839241,25.9652209211306
276650,-0.342642962932587,25.9652209211306
276760,-0.343264430761337,26.3788199733435
276870,-0.34305727481842,26.2869105420157
276980,-0.34243580698967,26.5166841203351
277090,-0.34243580698967,26.562638835999
277200,-0.342850118875504,26.6085935516629
277300,-0.343678742647171,26.1949944994499
277410,-0.342228621244431,26.4707294046712
277520,-0.34305727481842,26.6545548785648
277630,-0.34305727481842,26.562645447237
277740,-0.343264430761337,26.6545548785648
277850,-0.34305727481842,26.7464643098925
277960,-0.34305727481842,26.562638835999
278070,-0.34243580698967,26.9762378882119
278180,-0.34305727481842,26.930283172548
278290,-0.34243580698967,27.2519727934332
278400,-0.343471586704254,27.1600633621054
278510,-0.344093084335327,27.1600633621054
278610,-0.34160715341568,27.5277076986545
278720,-0.34243580698967,27.6655718456461
278830,-0.343678742647171,27.5277076986545
278940,-0.342642962932587,27.7574812769738
279050,-0.343264430761337,27.8034359926377
279160,-0.343471586704254,27.7574812769738
279270,-0.342642962932587,28.1710803291868
279380,-0.342850118875504,28.3548991918423
279490,-0.343264430761337,28.44680862317
279600,-0.34388592839241,28.2170284336126
279710,-0.343678742647171,28.1710737179487
279820,-0.343264430761337,28.2629831492765
279930,-0.343678742647171,28.4008539075061
280030,-0.342850118875504,28.7684982440552
280140,-0.342642962932587,28.8604076753829
280250,-0.342021465301514,29.1361425806042
280360,-0.34388592839241,28.9063623910468
280470,-0.342850118875504,28.8604076753829
280580,-0.342642962932587,29.2740067275958
280690,-0.343678742647171,29.2740067275958
280800,-0.34305727481842,29.3199614432597
280910,-0.34388592839241,29.1361359693662
281020,-0.34305727481842,29.2740001163578
281130,-0.343471586704254,29.1361359693662
281240,-0.342850118875504,29.3199548320217
281340,-0.341814309358597,29.3659095476855
281450,-0.343678742647171,29.2740001163578
281560,-0.343264430761337,29.4118708745875
281670,-0.343471586704254,29.3659161589236
281780,-0.34305727481842,29.3199614432597
281890,-0.343678742647171,28.9523171067107
282000,-0.343471586704254,28.814452959719
282110,-0.342850118875504,28.8604076753829
282220,-0.34305727481842,28.9063623910468
282330,-0.34305727481842,28.9982718223745
282440,-0.343471586704254,28.9982718223745
282550,-0.342642962932587,29.0442265380384
282660,-0.342642962932587,28.9523104954726
282760,-0.343471586704254,28.6306208745875
282870,-0.342642962932587,28.8603944529068
282980,-0.343471586704254,28.7225303059152
283090,-0.34388592839241,28.5387048320217
283200,-0.343678742647171,28.3089312537023
283310,-0.34305727481842,28.1251057798088
283420,-0.343264430761337,28.0791510641449
283530,-0.344300240278244,28.033196348481
283640,-0.344093084335327,27.9412803059152
283750,-0.34388592839241,27.61959068503
283860,-0.343471586704254,27.61959068503
283970,-0.343264430761337,27.7115001163578
284070,-0.34243580698967,27.8034095476855
284180,-0.34243580698967,27.8953189790133
284290,-0.34388592839241,27.8953189790133
284400,-0.343471586704254,27.9872350215791
284510,-0.342850118875504,28.1250991685707
284620,-0.343471586704254,28.0791444529068
284730,-0.343678742647171,27.7115001163578
284840,-0.343678742647171,27.4817265380384
284950,-0.34305727481842,27.5736359693662
285060,-0.342850118875504,27.8034161589236
285170,-0.34243580698967,28.1710604954726
285280,-0.34305727481842,28.1251057798088
285390,-0.342642962932587,28.3548793581281
285490,-0.343678742647171,27.9872350215791
285600,-0.342642962932587,27.9872350215791
285710,-0.343264430761337,28.033189737243
285820,-0.343678742647171,27.9412803059152
285930,-0.342850118875504,28.0791444529068
286040,-0.343264430761337,28.033189737243
286150,-0.343471586704254,27.9412803059152
286260,-0.342642962932587,28.1710538842346
286370,-0.344300240278244,27.7574548320217
286480,-0.342642962932587,27.987228410341
286590,-0.342228621244431,28.2629633155623
286700,-0.34243580698967,28.5386916095456
286800,-0.343264430761337,28.5846463252094
286910,-0.343471586704254,28.4927368938817
287020,-0.342850118875504,28.4008274625539
287130,-0.34243580698967,28.4008274625539
287240,-0.34243580698967,28.4467821782178
287350,-0.344093084335327,28.2629567043243
287460,-0.343264430761337,28.2170019886604
287570,-0.342850118875504,28.1250925573327
287680,-0.344093084335327,27.987221799103
287790,-0.342850118875504,27.9412670834391
287900,-0.342850118875504,28.0331765147669
288010,-0.34305727481842,28.0791312304307
288120,-0.34243580698967,28.1710406617585
288220,-0.343264430761337,28.1250859460946
288330,-0.343264430761337,28.1250859460946
288440,-0.343678742647171,28.0791312304307
288550,-0.343678742647171,27.9412670834391
288660,-0.343678742647171,27.8034029364475
288770,-0.342850118875504,27.8953123677752
288880,-0.34305727481842,27.8953123677752
288990,-0.34243580698967,27.9412670834391
289100,-0.344507396221161,27.5736227468901
289210,-0.343264430761337,27.205978410341
289320,-0.34305727481842,27.205978410341
289430,-0.34305727481842,27.1600236946772
289530,-0.344093084335327,26.9302435051197
289640,-0.34243580698967,27.0221529364475
289750,-0.342850118875504,27.2978878416688
289860,-0.342850118875504,27.3438425573327
289970,-0.34243580698967,27.6195708513159
290080,-0.342850118875504,27.5276614199882
290190,-0.34243580698967,27.6195708513159
290300,-0.342228621244431,27.6195708513159
290410,-0.342850118875504,27.6655255669798
290520,-0.34305727481842,27.8493510408733
290630,-0.342228621244431,27.9412670834391
290740,-0.342642962932587,28.0791312304307
290850,-0.343471586704254,27.987221799103
290950,-0.343264430761337,27.8034029364475
291060,-0.342642962932587,27.7574482207836
291170,-0.34305727481842,27.7114935051197
291280,-0.343471586704254,27.7574482207836
291390,-0.34305727481842,27.5736227468901
291500,-0.34243580698967,27.7114868938817
291610,-0.342850118875504,27.7574416095456
291720,-0.34388592839241,27.6195708513159
291830,-0.34305727481842,27.6195708513159
291940,-0.344300240278244,27.3438359460946
292050,-0.34305727481842,27.205971799103
292160,-0.343264430761337,27.1600170834391
292260,-0.343264430761337,26.9761982207836
292370,-0.343471586704254,26.9761982207836
292480,-0.343678742647171,27.0681142633494
292590,-0.34305727481842,26.7464246424642
292700,-0.343471586704254,26.5166510641449
292810,-0.343471586704254,26.5626057798088
292920,-0.343471586704254,26.3787869171533
293030,-0.34243580698967,26.5626057798088
293140,-0.343678742647171,26.5166510641449
293250,-0.342850118875504,26.470696348481
293360,-0.342642962932587,26.5166510641449
293470,-0.343264430761337,26.5166510641449
293580,-0.34305727481842,26.7004765380384
293680,-0.343471586704254,26.7464312537023
293790,-0.343678742647171,26.6545218223745
293900,-0.34243580698967,26.9302501163578
294010,-0.34305727481842,26.8842954006939
294120,-0.34305727481842,26.7923859693662
294230,-0.342642962932587,26.6545152111365
294340,-0.342228621244431,27.0221661589236
294450,-0.342228621244431,27.1600369171533
294560,-0.34305727481842,27.0681274858255
294670,-0.34305727481842,27.2059916328171
294780,-0.343471586704254,27.1140822014894
294890,-0.34305727481842,27.2979076753829
294990,-0.343678742647171,27.1600435283913
295100,-0.34243580698967,27.3898171067107
295210,-0.343471586704254,27.251952959719
295320,-0.343471586704254,26.88430862317
295430,-0.344093084335327,26.7923925806042
295540,-0.342642962932587,26.9302567275958
295650,-0.342228621244431,27.2059916328171
295760,-0.343264430761337,27.1600369171533
295870,-0.342850118875504,27.3438557798088
295980,-0.342850118875504,27.4817199268004
296090,-0.34305727481842,27.4357652111365
296200,-0.34305727481842,27.4357652111365
296310,-0.342642962932587,27.5276746424642
296410,-0.343471586704254,27.5276746424642
296520,-0.344093084335327,27.2059850215791
296630,-0.34243580698967,27.251939737243
296740,-0.342850118875504,27.3898038842346
296850,-0.342642962932587,27.3898038842346
296960,-0.343471586704254,27.3898038842346
297070,-0.34305727481842,27.5736293581281
297180,-0.342642962932587,27.8034029364475
297290,-0.342850118875504,27.8493576521114
297400,-0.344300240278244,27.6195774625539
297510,-0.343678742647171,27.7574482207836
297620,-0.343678742647171,27.8493642633494
297720,-0.342642962932587,28.1250991685707
297830,-0.343678742647171,28.0791444529068
297940,-0.342228621244431,28.3089246424642
298050,-0.34305727481842,28.1710604954726
298160,-0.343471586704254,27.9412869171533
298270,-0.343264430761337,28.0791576753829
298380,-0.343264430761337,28.1251123910468
298490,-0.342850118875504,28.1251123910468
298600,-0.34243580698967,28.3548859693662
298710,-0.342850118875504,28.5387048320217
298820,-0.34388592839241,28.4927435051197
298930,-0.342642962932587,28.5846529364475
299040,-0.34388592839241,28.3548727468901
299140,-0.34243580698967,28.3548727468901
299250,-0.342850118875504,28.4008274625539
299360,-0.34243580698967,28.4467821782178
299470,-0.342021465301514,28.8144265147669
299580,-0.342850118875504,28.768471799103
299690,-0.342021465301514,29.0442067043243
299800,-0.34305727481842,29.1820708513159
299910,-0.342021465301514,29.3658963252094
300020,-0.342850118875504,29.4578057565372
300130,-0.344093084335327,29.3199349983075
300240,-0.342850118875504,29.2739802826436
300350,-0.34388592839241,29.3658897139714
300450,-0.34388592839241,29.0901548087501
300560,-0.34388592839241,28.722503860963
300670,-0.34305727481842,28.5846397139714
300780,-0.34388592839241,28.4467689557417
300890,-0.342642962932587,28.6305878183972
301000,-0.342850118875504,28.6305878183972
301110,-0.343471586704254,28.4008142400779
301220,-0.342642962932587,28.354859524414
301330,-0.342642962932587,28.6765491452991
301440,-0.343678742647171,28.5846397139714
301550,-0.343264430761337,28.4927302826436
301660,-0.343264430761337,28.6765557565372
301770,-0.343678742647171,28.4927368938817
301870,-0.342642962932587,28.5386916095456
301980,-0.344300240278244,28.2629567043243
302090,-0.343471586704254,28.0331831260049
302200,-0.34305727481842,28.0791378416688
302310,-0.343678742647171,27.987228410341
302420,-0.342021465301514,28.3548727468901
302530,-0.342642962932587,28.5846463252094
302640,-0.342021465301514,28.9522906617585
302750,-0.34243580698967,29.0442000930862
302860,-0.343471586704254,28.9522906617585
302970,-0.343264430761337,28.768471799103
303080,-0.34305727481842,29.0901614199882
303180,-0.342850118875504,29.1820708513159
303290,-0.342850118875504,29.2280255669798
303400,-0.341814309358597,29.5037604722011
303510,-0.342850118875504,29.7794953774224
303620,-0.342228621244431,29.8254567043243
303730,-0.34243580698967,29.917366135652
303840,-0.342642962932587,29.9633208513159
303950,-0.343678742647171,29.6875925573327
304060,-0.34160715341568,29.9633274625539
304170,-0.343471586704254,29.7335538842346
304280,-0.342850118875504,29.5956831260049
304390,-0.34305727481842,29.549728410341
304500,-0.343678742647171,29.4118642633494
304600,-0.343264430761337,29.182084073792
304710,-0.342850118875504,29.1361293581281
304820,-0.342642962932587,29.3199482207836
304930,-0.343264430761337,29.3199482207836
305040,-0.343678742647171,29.0901746424642
305150,-0.342642962932587,29.182084073792
305260,-0.342642962932587,29.3659029364475
305370,-0.343678742647171,29.2280387894559
305480,-0.343264430761337,29.0442199268004
305590,-0.342850118875504,29.0442199268004
305700,-0.34305727481842,29.2280454006939
305810,-0.342850118875504,29.2740001163578
305910,-0.34243580698967,29.6875991685707
306020,-0.343678742647171,29.5497350215791
306130,-0.344093084335327,29.3659095476855
306240,-0.344093084335327,29.182084073792
306350,-0.34305727481842,29.2739935051197
306460,-0.344093084335327,29.1820774625539
306570,-0.34388592839241,28.9982519886604
306680,-0.343471586704254,28.9982519886604
306790,-0.34243580698967,29.2280255669798
306900,-0.344093084335327,29.0901548087501
307010,-0.34305727481842,28.9522906617585
307120,-0.342850118875504,29.136109524414
307230,-0.342021465301514,29.3199349983075
307330,-0.344300240278244,28.9522906617585
307440,-0.34305727481842,28.9982453774224
307550,-0.342850118875504,29.0442000930862
307660,-0.34388592839241,28.9522840505204
307770,-0.342850118875504,29.1361029131759
307880,-0.34388592839241,28.8144132922908
307990,-0.34388592839241,28.6305878183972
308100,-0.343264430761337,28.5846331027333
308210,-0.34243580698967,28.6305878183972
308320,-0.34305727481842,28.4467623445037
308430,-0.344093084335327,28.0331566810527
308540,-0.344300240278244,27.7574217758314
308640,-0.343264430761337,27.7114670601676
308750,-0.34243580698967,27.9412406384869
308860,-0.34305727481842,27.9412406384869
308970,-0.344093084335327,27.8493245959211
309080,-0.34305727481842,27.7114604489295
309190,-0.343471586704254,27.7114604489295
309300,-0.342850118875504,27.8493245959211
309410,-0.343471586704254,27.9871953541508
309520,-0.34305727481842,27.8952859228231
309630,-0.342850118875504,27.7574151645934
309740,-0.342850118875504,27.8493245959211
309850,-0.34305727481842,27.8033698802573
309960,-0.34305727481842,27.7574151645934
310060,-0.343678742647171,27.6195510176018
310170,-0.342228621244431,27.8033764914953
310280,-0.34305727481842,27.7114670601676
310390,-0.343471586704254,27.7114670601676
310500,-0.341399997472763,28.308891586274
310610,-0.34305727481842,28.1710274392824
310720,-0.342850118875504,28.1710274392824
310830,-0.343678742647171,27.941253860963
310940,-0.343471586704254,27.941253860963
311050,-0.34305727481842,27.941253860963
311160,-0.343264430761337,27.8033897139714
311270,-0.343264430761337,27.7114802826436
311380,-0.342850118875504,28.0331699035288
311480,-0.342228621244431,28.354859524414
311590,-0.344300240278244,28.2169887661843
311700,-0.34388592839241,27.941253860963
311810,-0.34305727481842,28.0791180079546
311920,-0.342850118875504,27.941247249725
312030,-0.343678742647171,27.8033831027333
312140,-0.342642962932587,27.9872019653888
312250,-0.344300240278244,27.7574217758314
312360,-0.343471586704254,27.7114670601676
312470,-0.343471586704254,27.5736029131759
312580,-0.343678742647171,27.2978746191927
312690,-0.343471586704254,27.1600104722011
312790,-0.343471586704254,27.2519265147669
312900,-0.34243580698967,27.2978812304307
313010,-0.343471586704254,27.3897972729965
313120,-0.34305727481842,27.2519331260049
313230,-0.342642962932587,27.2978878416688
313340,-0.343471586704254,27.0681142633494
313450,-0.344093084335327,26.6085538842346
313560,-0.34388592839241,26.3787736946772
313670,-0.343678742647171,26.0111293581281
313780,-0.344093084335327,25.7813491685707
313890,-0.344300240278244,25.275834073792
314000,-0.34243580698967,25.3677435051197
314110,-0.343678742647171,25.4596595476855
314210,-0.344507396221161,25.0920152111365
314320,-0.343678742647171,25.1379765380384
314430,-0.34388592839241,25.1379765380384
314540,-0.343678742647171,25.1839378649403
314650,-0.344093084335327,24.9541576753829
314760,-0.34305727481842,25.1379831492765
314870,-0.342850118875504,25.0920284336126
314980,-0.342228621244431,25.2298991918423
315090,-0.342850118875504,25.3677633388339
315200,-0.342228621244431,25.4596793813997
315310,-0.342228621244431,25.5515954239655
315420,-0.343264430761337,25.6435048552932
315520,-0.343264430761337,25.6435048552932
315630,-0.34305727481842,25.6894595709571
315740,-0.342642962932587,25.9192331492765
315850,-0.34388592839241,25.6434982440552
315960,-0.343678742647171,25.7813690022848
316070,-0.343264430761337,25.8273237179487
316180,-0.344093084335327,25.5975435283913
316290,-0.342850118875504,25.7813623910468
316400,-0.34305727481842,25.5515822014894
316510,-0.342228621244431,25.6434982440552
316620,-0.343471586704254,25.32180862317
316730,-0.342850118875504,25.2298991918423
316840,-0.342021465301514,25.5515888127274
316940,-0.342642962932587,25.689452959719
317050,-0.34305727481842,25.689452959719
317160,-0.343678742647171,25.5056340970636
317270,-0.342642962932587,25.5515888127274
317380,-0.345336049795151,24.7703388127274
317490,-0.34243580698967,24.8622482440552
317600,-0.342228621244431,24.8622482440552
317710,-0.342850118875504,24.7703388127274
317820,-0.342850118875504,24.7243840970636
317930,-0.342850118875504,24.908202959719
318040,-0.343678742647171,24.4486491918423
318150,-0.343678742647171,24.4026944761784
318250,-0.34243580698967,24.4946039075061
318360,-0.34243580698967,24.6324680544978
318470,-0.343678742647171,24.6324680544978
318580,-0.342228621244431,24.8622482440552
318690,-0.34305727481842,24.8162935283913
318800,-0.34305727481842,24.7243840970636
318910,-0.344300240278244,24.4946039075061
319020,-0.343264430761337,24.5865133388339
319130,-0.342850118875504,24.54055862317
319240,-0.342850118875504,24.4946039075061
319350,-0.343471586704254,24.54055862317
319460,-0.34388592839241,24.4026878649403
319570,-0.342228621244431,24.54055862317
319670,-0.34243580698967,24.6784227701616
319780,-0.344093084335327,24.4026878649403
319890,-0.34305727481842,24.2648237179487
320000,-0.342850118875504,24.4486425806042
320110,-0.34388592839241,24.4945972962681
320220,-0.342850118875504,24.7703322014894
320330,-0.343471586704254,24.6784227701616
320440,-0.342021465301514,25.1379831492765
320550,-0.343264430761337,25.2758539075061
320660,-0.343264430761337,25.32180862317
320770,-0.342850118875504,25.2298991918423
320880,-0.34388592839241,25.2758539075061
320980,-0.344093084335327,25.0460737179487
321090,-0.343678742647171,24.8622548552932
321200,-0.342228621244431,24.8163001396293
321310,-0.342642962932587,25.1839444761784
321420,-0.34388592839241,25.0001190022848
321530,-0.342850118875504,25.0001190022848
321640,-0.34388592839241,25.0001190022848
321750,-0.344093084335327,24.7243840970636
321860,-0.34305727481842,24.9082095709571
321970,-0.34243580698967,25.2298991918423
322080,-0.343678742647171,25.1379897605145
322190,-0.34388592839241,24.8163001396293
322300,-0.34305727481842,24.8163001396293
322400,-0.341814309358597,25.3218152344081
322510,-0.342228621244431,25.7813756135229
322620,-0.343678742647171,25.6894661821951
322730,-0.343471586704254,25.4596926038758
322840,-0.343264430761337,25.4137378882119
322950,-0.343471586704254,25.5516086464416
323060,-0.34305727481842,25.5516086464416
