time,raw,transformed
9890,-0.329591870307922,0
10000,-0.33042049407959,0
10110,-0.330627650022507,0
10220,-0.33042049407959,100
10330,-0.331041991710663,99.9990409513798
10440,-0.330006182193756,66.6671462001783
10550,-0.33187061548233,69.8412952137381
10650,-0.331663459539413,62.5
10760,-0.332284957170486,61.6164390329676
10870,-0.332077771425247,56.363993042386
10980,-0.332492113113403,54.5456725162762
11090,-0.332284957170486,50.694627600482
11200,-0.332492113113403,46.7950408619848
11310,-0.331663459539413,45.8335188680208
11420,-0.33269926905632,46.666740441543
11530,-0.332284957170486,44.7115863442705
11640,-0.332492113113403,42.5339717029946
11750,-0.332906424999237,44.0475701152266
11860,-0.334149390459061,57.6315846260951
11960,-0.333735078573227,55.2499946052087
12070,-0.333320736885071,53.5714371345888
12180,-0.333113580942154,52.2727436205784
12290,-0.334770858287811,55.9545332415227
12400,-0.334356546401978,53.9854063982924
12510,-0.334563702344894,51.9998999224395
12620,-0.333527892827988,51.003253482988
12730,-0.333942234516144,49.7583543913196
12840,-0.333735078573227,48.7576532526992
12950,-0.334978014230728,49.1377915135293
13060,-0.334356546401978,47.9165243036195
13170,-0.334978014230728,46.3708299712451
13280,-0.334563702344894,45.1821535183154
13380,-0.334770858287811,43.939257706813
13490,-0.333527892827988,43.5047719388071
13600,-0.333527892827988,43.0951139289716
13710,-0.334149390459061,42.3609820685836
13820,-0.334978014230728,41.2160906613248
13930,-0.334770858287811,40.2411038475724
14040,-0.335185199975967,41.5386267940373
14150,-0.335806667804718,46.6071612067899
14260,-0.335392355918884,45.6446136248114
14370,-0.336428135633469,49.6926976466156
14480,-0.336013823747635,48.6870882395637
14590,-0.335806667804718,47.8005007730971
14690,-0.335392355918884,47.096683708327
14800,-0.335806667804718,46.2832175345605
14910,-0.335806667804718,45.5043669426559
15020,-0.336013823747635,44.6907654051716
15130,-0.336013823747635,43.9103720937061
15240,-0.336428135633469,43.0321646518316
15350,-0.335392355918884,42.5046463813728
15460,-0.337049633264542,46.662942116718
15570,-0.336220979690552,46.0044881165665
15680,-0.336013823747635,45.4248863802513
15790,-0.336428135633469,44.7594114617331
15900,-0.336013823747635,44.2227432991231
16010,-0.335392355918884,43.8597010850384
16110,-0.336428135633469,43.2556332363609
16220,-0.335599511861801,42.8714398399713
16330,-0.335806667804718,42.4510343193462
16440,-0.336220979690552,41.9479826109742
16550,-0.336013823747635,41.5085957036291
16660,-0.337878257036209,46.9088743356846
16770,-0.336220979690552,46.5048702312762
16880,-0.336220979690552,46.1132970223876
16990,-0.336428135633469,45.6937180147715
17100,-0.336635321378708,45.2473815489244
17210,-0.336842477321625,44.7754736683406
17320,-0.337256789207459,44.2409680702708
17420,-0.336428135633469,43.8721125624056
17530,-0.334149390459061,43.9213543794808
17640,-0.336220979690552,43.6037329527316
17750,-0.337256789207459,43.1145665753173
17860,-0.336635321378708,42.7453045243412
17970,-0.337463945150375,42.245541240919
18080,-0.336013823747635,42.0013122875827
18190,-0.335599511861801,41.831778349498
18300,-0.337049633264542,41.4304237108551
18410,-0.337671101093292,40.9392984630451
18520,-0.337463945150375,40.4933454606029
18630,-0.336635321378708,40.1883556993983
18740,-0.337256789207459,39.7945292567411
18840,-0.337671101093292,39.3467822673084
18950,-0.336635321378708,39.0663345594011
19060,-0.337256789207459,38.6996081222494
19170,-0.338085442781448,38.2190091008669
19280,-0.336635321378708,37.9611949135356
19390,-0.336428135633469,37.7391481817873
19500,-0.338914066553116,37.1672698398344
19610,-0.337256789207459,36.8420178127423
19720,-0.337049633264542,36.5528320844192
19830,-0.336842477321625,36.2985365799062
19940,-0.337463945150375,35.9648217593442
20050,-0.338085442781448,35.5542182542808
20150,-0.337671101093292,35.2076636319603
20260,-0.337049633264542,34.9505641830372
20370,-0.337878257036209,34.5902490883668
20480,-0.337671101093292,34.2641397010759
20590,-0.337878257036209,33.9180372798526
20700,-0.337878257036209,33.5788569070538
20810,-0.338085442781448,33.2203344850372
20920,-0.337671101093292,32.9204442364964
21030,-0.337878257036209,32.600828273035
21140,-0.336842477321625,32.4138745941517
21250,-0.337671101093292,32.1302332088154
21360,-0.337256789207459,31.901595040822
21470,-0.338085442781448,31.5788520243976
21570,-0.338499754667282,31.2133537095013
21680,-0.338706910610199,30.8304193165871
21790,-0.337463945150375,30.5979887615971
21900,-0.338292598724365,30.2749128551818
22010,-0.337049633264542,30.0985843166123
22120,-0.337671101093292,29.8555130318084
22230,-0.337878257036209,29.5936225666174
22340,-0.337671101093292,29.3591695802457
22450,-0.338499754667282,29.0380132391717
22560,-0.337256789207459,28.8573001978239
22670,-0.338292598724365,28.5681414092788
22780,-0.337463945150375,28.3723003744755
22890,-0.338292598724365,28.0920025642677
22990,-0.338085442781448,27.8380859503753
23100,-0.337671101093292,27.6314748289285
23210,-0.337463945150375,27.4496177837154
23320,-0.338292598724365,27.1858028269875
23430,-0.338914066553116,26.8630522103556
23540,-0.338292598724365,26.608080074952
23650,-0.338085442781448,26.3778439506085
23760,-0.338292598724365,26.1306464443502
23870,-0.338914066553116,25.2054817371651
23980,-0.338085442781448,24.444787600845
24090,-0.338292598724365,23.6840934645249
24200,-0.337463945150375,22.9850787499574
24300,-0.337878257036209,22.3066258144263
24410,-0.337878257036209,21.5253758144263
24520,-0.337463945150375,20.9702758070439
24630,-0.337671101093292,20.3740581569453
24740,-0.339121222496033,19.6956052214142
24850,-0.336842477321625,19.2227404994643
24960,-0.338914066553116,18.5854052066494
25070,-0.337878257036209,18.0303081569453
25180,-0.338085442781448,17.4752081495629
25290,-0.338292598724365,16.8173110777117
25400,-0.337671101093292,16.3238904920819
25510,-0.338085442781448,15.7482316633414
25620,-0.338085442781448,15.1931316559591
25720,-0.33932837843895,14.5557963631442
25830,-0.338085442781448,14.1651698843051
25940,-0.337878257036209,13.7539875417861
26050,-0.338499754667282,13.24000517712
26160,-0.337671101093292,12.7877022342065
26270,-0.337878257036209,12.4793139984781
26380,-0.338706910610199,12.0475698769227
26490,-0.338292598724365,11.6775022194417
26600,-0.338914066553116,11.1429610334175
26710,-0.338085442781448,10.7317757332203
26820,-0.337878257036209,10.3205933907012
26930,-0.338706910610199,9.95052573322026
27030,-0.337463945150375,9.64213749749189
27140,-0.339535564184189,9.18983159690016
27250,-0.339535564184189,8.69640805359218
27360,-0.338085442781448,8.36745803882745
27470,-0.337878257036209,7.93571391727208
27580,-0.339949876070023,7.29837566677898
27690,-0.338292598724365,6.88719036658174
27800,-0.338499754667282,6.53768153045888
27910,-0.337878257036209,6.22929329473051
28020,-0.338292598724365,5.92090505900213
28130,-0.338085442781448,5.69475210870627
28240,-0.338706910610199,5.36580505161977
28350,-0.33932837843895,5.07797563724952
28450,-0.338292598724365,4.85182268695366
28560,-0.337878257036209,4.64623151569415
28670,-0.338499754667282,4.33784327996578
28780,-0.338085442781448,4.11169032966991
28890,-0.33932837843895,3.76218445122528
29000,-0.338706910610199,3.49491385821316
29110,-0.339121222496033,3.18652562248479
29220,-0.339121222496033,2.91925502947267
29330,-0.338499754667282,2.6108667937443
29440,-0.339121222496033,2.40527562248479
29550,-0.339742720127106,2.05576678636193
29660,-0.339121222496033,1.74737855063356
29760,-0.339535564184189,1.43898735722696
29870,-0.338706910610199,1.17171676421484
29980,-0.338499754667282,0.863328528486464
30090,-0.338292598724365,0.678293220906857
30200,-0.338706910610199,0.369904985178483
30310,-0.339742720127106,0
30420,-0.338914066553116,0
30530,-0.339742720127106,0
30640,-0.339535564184189,0
30750,-0.338085442781448,0
30860,-0.338499754667282,0
30970,-0.33932837843895,0
31080,-0.338706910610199,0
31180,-0.33932837843895,0
31290,-0.338914066553116,0
31400,-0.339121222496033,0
31510,-0.338914066553116,0
31620,-0.338085442781448,0
31730,-0.339949876070023,0
31840,-0.339121222496033,0
31950,-0.338292598724365,0
32060,-0.338292598724365,0
32170,-0.33932837843895,0
32280,-0.33932837843895,0
32390,-0.338914066553116,0
32490,-0.338085442781448,0
32600,-0.338706910610199,0
32710,-0.338499754667282,0
32820,-0.339949876070023,0
32930,-0.338085442781448,0
33040,-0.339742720127106,0
33150,-0.33932837843895,0
33260,-0.338499754667282,0
33370,-0.337878257036209,0
33480,-0.33932837843895,0
33590,-0.337671101093292,0
33700,-0.338085442781448,0
33810,-0.338706910610199,0
33910,-0.33932837843895,0
34020,-0.337878257036209,0
34130,-0.338085442781448,0
34240,-0.338499754667282,0
34350,-0.339742720127106,0
34460,-0.339121222496033,0
34570,-0.340157032012939,0
34680,-0.339535564184189,0
34790,-0.338706910610199,0
34900,-0.339949876070023,0
35010,-0.339742720127106,0
35120,-0.338499754667282,0
35220,-0.338706910610199,0
35330,-0.33932837843895,0
35440,-0.339949876070023,0
35550,-0.338706910610199,0
35660,-0.339742720127106,0
35770,-0.339535564184189,0
35880,-0.339121222496033,0
35990,-0.339535564184189,0
36100,-0.339949876070023,0
36210,-0.338292598724365,0
36320,-0.338914066553116,0
36430,-0.33932837843895,0
36540,-0.339742720127106,0
36640,-0.338706910610199,0
36750,-0.340364187955856,0
36860,-0.339121222496033,0
36970,-0.338499754667282,0
37080,-0.338292598724365,0
37190,-0.340571343898773,0
37300,-0.338914066553116,0
37410,-0.338085442781448,0
37520,-0.339949876070023,0
37630,-0.339121222496033,0
37740,-0.338085442781448,0
37850,-0.338499754667282,0
37950,-0.33932837843895,0
38060,-0.339121222496033,0
38170,-0.338914066553116,0
38280,-0.339121222496033,0
38390,-0.340157032012939,0
38500,-0.339121222496033,0
38610,-0.338292598724365,0
38720,-0.339121222496033,0
38830,-0.33932837843895,0
38940,-0.338914066553116,0
39050,-0.339121222496033,0
39160,-0.338499754667282,0
39270,-0.338706910610199,0
39370,-0.339742720127106,0
39480,-0.339742720127106,0
39590,-0.338706910610199,0
39700,-0.338914066553116,0
39810,-0.338914066553116,0
39920,-0.338706910610199,0
40030,-0.339121222496033,0
40140,-0.338914066553116,0
40250,-0.340157032012939,0
40360,-0.340364187955856,0
40470,-0.338292598724365,0
40580,-0.338292598724365,0
40680,-0.339535564184189,0
40790,-0.339742720127106,0
40900,-0.338292598724365,0
41010,-0.338914066553116,0
41120,-0.339949876070023,0
41230,-0.33932837843895,0
41340,-0.33932837843895,0
41450,-0.339535564184189,0
41560,-0.33932837843895,0
41670,-0.338499754667282,0
41780,-0.339535564184189,0
41890,-0.338706910610199,0
42000,-0.34077849984169,0
42100,-0.340157032012939,0
42210,-0.339535564184189,0
42320,-0.339535564184189,0
42430,-0.339535564184189,0
42540,-0.339742720127106,0
42650,-0.339949876070023,0
42760,-0.340571343898773,0
42870,-0.340157032012939,0
42980,-0.339949876070023,0
43090,-0.33932837843895,0
43200,-0.338499754667282,0
43310,-0.338085442781448,0
43410,-0.340571343898773,0
43520,-0.340157032012939,0
43630,-0.338914066553116,0
43740,-0.340157032012939,0
43850,-0.340157032012939,0
43960,-0.339121222496033,0
44070,-0.339535564184189,0
44180,-0.338914066553116,0
44290,-0.339121222496033,0
44400,-0.339535564184189,0
44510,-0.339742720127106,0
44620,-0.339121222496033,0
44730,-0.339949876070023,0
44830,-0.340157032012939,0
44940,-0.340364187955856,0
45050,-0.33932837843895,0
45160,-0.340157032012939,0
45270,-0.339535564184189,0
45380,-0.33932837843895,0
45490,-0.339535564184189,0
45600,-0.340985685586929,0
45710,-0.340157032012939,0
45820,-0.338499754667282,0
45930,-0.340157032012939,0
46040,-0.339121222496033,0
46140,-0.340157032012939,0
46250,-0.338914066553116,0
46360,-0.339535564184189,0
46470,-0.340364187955856,0
46580,-0.339742720127106,0
46690,-0.339535564184189,0
46800,-0.339949876070023,0
46910,-0.341192841529846,0
47020,-0.340364187955856,0
47130,-0.340157032012939,0
47240,-0.339949876070023,0
47350,-0.33932837843895,0
47460,-0.339742720127106,0
47560,-0.344507396221161,0
47670,-0.343678742647171,0
47780,-0.338499754667282,0
47890,-0.339535564184189,0
48000,-0.34077849984169,0
48110,-0.339121222496033,0
48220,-0.339949876070023,0
48330,-0.340985685586929,0
48440,-0.33932837843895,0
48550,-0.33932837843895,0
48660,-0.33932837843895,0
48770,-0.339742720127106,0
48870,-0.33932837843895,0
48980,-0.338292598724365,0
49090,-0.340157032012939,0
49200,-0.338914066553116,0
49310,-0.340571343898773,0
49420,-0.339949876070023,0
49530,-0.339742720127106,0
49640,-0.341192841529846,0
49750,-0.33932837843895,0
49860,-0.338706910610199,0
49970,-0.340157032012939,0
50080,-0.340157032012939,0
50190,-0.339949876070023,0
50290,-0.339535564184189,0
50400,-0.339535564184189,0
50510,-0.340364187955856,0
50620,-0.339742720127106,0
50730,-0.340157032012939,0
50840,-0.338914066553116,0
50950,-0.340364187955856,0
51060,-0.340571343898773,0
51170,-0.339535564184189,0
51280,-0.340571343898773,0
51390,-0.339949876070023,0
51500,-0.339742720127106,0
51600,-0.339535564184189,0
51710,-0.340157032012939,0
51820,-0.339742720127106,0
51930,-0.339742720127106,0
52040,-0.34077849984169,0
52150,-0.339535564184189,0
52260,-0.340157032012939,0
52370,-0.339742720127106,0
52480,-0.338914066553116,0
52590,-0.340364187955856,0
52700,-0.340364187955856,0
52810,-0.339535564184189,0
52920,-0.339535564184189,0
53020,-0.339949876070023,0
53130,-0.338914066553116,0
53240,-0.339535564184189,0
53350,-0.339949876070023,0
53460,-0.339535564184189,0
53570,-0.339742720127106,0
53680,-0.340157032012939,0
53790,-0.340571343898773,0
53900,-0.339535564184189,0
54010,-0.34077849984169,0
54120,-0.33932837843895,0
54230,-0.339535564184189,0
54330,-0.340571343898773,0
54440,-0.340157032012939,0
54550,-0.339121222496033,0
54660,-0.340571343898773,0
54770,-0.34077849984169,0
54880,-0.34077849984169,0
54990,-0.340571343898773,0
55100,-0.340364187955856,0
55210,-0.340364187955856,0
55320,-0.339535564184189,0
55430,-0.339949876070023,0
55540,-0.339535564184189,0
55650,-0.339742720127106,0
55750,-0.339121222496033,0
55860,-0.339742720127106,0
55970,-0.339535564184189,0
56080,-0.33932837843895,0
56190,-0.341192841529846,0
56300,-0.338499754667282,0
56410,-0.340364187955856,0
56520,-0.339535564184189,0
56630,-0.339949876070023,0
56740,-0.339949876070023,0
56850,-0.33932837843895,0
56960,-0.340364187955856,0
57060,-0.340157032012939,0
57170,-0.339742720127106,0
57280,-0.339742720127106,0
57390,-0.339949876070023,0
57500,-0.339949876070023,0
57610,-0.33932837843895,0
57720,-0.338914066553116,0
57830,-0.339535564184189,0
57940,-0.339949876070023,0
58050,-0.340157032012939,0
58160,-0.340571343898773,0
58270,-0.341192841529846,0
58380,-0.340157032012939,0
58480,-0.33932837843895,0
58590,-0.340364187955856,0
58700,-0.339742720127106,0
58810,-0.34077849984169,0
58920,-0.339121222496033,0
59030,-0.340571343898773,0
59140,-0.340364187955856,0
59250,-0.341192841529846,0
59360,-0.339535564184189,0
59470,-0.341192841529846,0
59580,-0.339535564184189,0
59690,-0.339949876070023,0
59790,-0.340571343898773,0
59900,-0.339742720127106,0
60010,-0.340571343898773,0
60120,-0.340157032012939,0
60230,-0.340364187955856,0
60340,-0.340157032012939,0
60450,-0.339742720127106,0
60560,-0.340157032012939,0
60670,-0.339742720127106,0
60780,-0.341814309358597,0
60890,-0.339742720127106,0
61000,-0.339535564184189,0
61110,-0.339949876070023,0
61210,-0.341399997472763,0
61320,-0.340157032012939,0
61430,-0.340571343898773,0
61540,-0.340364187955856,0
61650,-0.339949876070023,0
61760,-0.340985685586929,0
61870,-0.339742720127106,0
61980,-0.340364187955856,0
62090,-0.341399997472763,0
62200,-0.340985685586929,0
62310,-0.340364187955856,0
62420,-0.340157032012939,0
62520,-0.340157032012939,0
62630,-0.339742720127106,0
62740,-0.340364187955856,0
62850,-0.33932837843895,0
62960,-0.339949876070023,0
63070,-0.34077849984169,0
63180,-0.339535564184189,0
63290,-0.340157032012939,0
63400,-0.339742720127106,0
63510,-0.339742720127106,0
63620,-0.339742720127106,0
63730,-0.341192841529846,0
63840,-0.339949876070023,0
63940,-0.338292598724365,0
64050,-0.340985685586929,0
64160,-0.340364187955856,0
64270,-0.340157032012939,0
64380,-0.340571343898773,0
64490,-0.340157032012939,0
64600,-0.339535564184189,0
64710,-0.34077849984169,0
64820,-0.340157032012939,0
64930,-0.33932837843895,0
65040,-0.340157032012939,0
65150,-0.339742720127106,0
65250,-0.339742720127106,0
65360,-0.339121222496033,0
65470,-0.340985685586929,0
65580,-0.339742720127106,0
65690,-0.340157032012939,0
65800,-0.33932837843895,0
65910,-0.339535564184189,0
66020,-0.339742720127106,0
66130,-0.340364187955856,0
66240,-0.33932837843895,0
66350,-0.339742720127106,0
66460,-0.340985685586929,0
66570,-0.339535564184189,0
66670,-0.340571343898773,0
66780,-0.33932837843895,0
66890,-0.340364187955856,0
67000,-0.340364187955856,0
67110,-0.341192841529846,0
67220,-0.340364187955856,0
67330,-0.341192841529846,0
67440,-0.340571343898773,0
67550,-0.339742720127106,0
67660,-0.338914066553116,0
67770,-0.339742720127106,0
67880,-0.338499754667282,0
67980,-0.340364187955856,0
68090,-0.33932837843895,0
68200,-0.340364187955856,0
68310,-0.33932837843895,0
68420,-0.339535564184189,0
68530,-0.340364187955856,0
68640,-0.338292598724365,0
68750,-0.34077849984169,0
68860,-0.339949876070023,0
68970,-0.34077849984169,0
69090,-0.340571343898773,0
69190,-0.340364187955856,0
69300,-0.341814309358597,0
69400,-0.339949876070023,0
69510,-0.340364187955856,0
69620,-0.339121222496033,0
69730,-0.341399997472763,0
69840,-0.339535564184189,0
69950,-0.340571343898773,0
70060,-0.339121222496033,0
70170,-0.340364187955856,0
70280,-0.340985685586929,0
70390,-0.339949876070023,0
70500,-0.340571343898773,0
70610,-0.340571343898773,0
70710,-0.34077849984169,0
70820,-0.339535564184189,0
70930,-0.340571343898773,0
71040,-0.340157032012939,0
71150,-0.339535564184189,0
71260,-0.341192841529846,0
71370,-0.340571343898773,0
71480,-0.340571343898773,0
71590,-0.34077849984169,0
71700,-0.340157032012939,0
71810,-0.340364187955856,0
71920,-0.339742720127106,0
72030,-0.339742720127106,0
72130,-0.339742720127106,0
72240,-0.340157032012939,0
72350,-0.340571343898773,0
72460,-0.338914066553116,0
72570,-0.341192841529846,0
72680,-0.340571343898773,0
72790,-0.339949876070023,0
72900,-0.339949876070023,0
73010,-0.339949876070023,0
73120,-0.339535564184189,0
73230,-0.340364187955856,0
73340,-0.340364187955856,0
73440,-0.340985685586929,0
73550,-0.34077849984169,0
73660,-0.339535564184189,0
73770,-0.340571343898773,0
73880,-0.340364187955856,0
73990,-0.340364187955856,0
74100,-0.33932837843895,0
74210,-0.341192841529846,0
74320,-0.340157032012939,0
74430,-0.340157032012939,0
74540,-0.340571343898773,0
74650,-0.339742720127106,0
74760,-0.340364187955856,0
74860,-0.34077849984169,0
74970,-0.339535564184189,0
75080,-0.340571343898773,0
75190,-0.340364187955856,0
75300,-0.34077849984169,0
75410,-0.34077849984169,0
75520,-0.340157032012939,0
75630,-0.340985685586929,0
75740,-0.340364187955856,0
75850,-0.339742720127106,0
75960,-0.340364187955856,0
76070,-0.340364187955856,0
76170,-0.340157032012939,0
76280,-0.33932837843895,0
76390,-0.340571343898773,0
76500,-0.339742720127106,0
76610,-0.340985685586929,0
76720,-0.340157032012939,0
76830,-0.339742720127106,0
76940,-0.339535564184189,0
77050,-0.340985685586929,0
77160,-0.340364187955856,0
77270,-0.34077849984169,0
77380,-0.34077849984169,0
77490,-0.34077849984169,0
77590,-0.340364187955856,0
77700,-0.341192841529846,0
77810,-0.339949876070023,0
77920,-0.340364187955856,0
78030,-0.340571343898773,0
78140,-0.340364187955856,0
78250,-0.341192841529846,0
78360,-0.340157032012939,0
78470,-0.339949876070023,0
78580,-0.339535564184189,0
78690,-0.340985685586929,0
78800,-0.340364187955856,0
78900,-0.339535564184189,0
79010,-0.339742720127106,0
79120,-0.340571343898773,0
79230,-0.340157032012939,0
79340,-0.339742720127106,0
79450,-0.339535564184189,0
79560,-0.341192841529846,0
79670,-0.34077849984169,0
79780,-0.342021465301514,0
79890,-0.340571343898773,0
80000,-0.339742720127106,0
80110,-0.340985685586929,0
80220,-0.339121222496033,0
80320,-0.339949876070023,0
80430,-0.340157032012939,0
80540,-0.340571343898773,0
80650,-0.340157032012939,0
80760,-0.340157032012939,0
80870,-0.340571343898773,0
80980,-0.340364187955856,0
81090,-0.339742720127106,0
81200,-0.339742720127106,0
81310,-0.33932837843895,0
81420,-0.338914066553116,0
81530,-0.34077849984169,0
81630,-0.339121222496033,0
81740,-0.340571343898773,0
81850,-0.340571343898773,0
81960,-0.340364187955856,0
82070,-0.340157032012939,0
82180,-0.340364187955856,0
82290,-0.339949876070023,0
82400,-0.340157032012939,0
82510,-0.34077849984169,0
82620,-0.34077849984169,0
82730,-0.341192841529846,0
82840,-0.341814309358597,0
82950,-0.339742720127106,0
83050,-0.340157032012939,0
83160,-0.340571343898773,0
83270,-0.339742720127106,0
83380,-0.340157032012939,0
83490,-0.339949876070023,0
83600,-0.340157032012939,0
83710,-0.341399997472763,0
83820,-0.34077849984169,0
83930,-0.341192841529846,0
84040,-0.341192841529846,0
84150,-0.34077849984169,0
84260,-0.340364187955856,0
84360,-0.339535564184189,0
84470,-0.340157032012939,0
84580,-0.340364187955856,0
84690,-0.340571343898773,0
84800,-0.339535564184189,0
84910,-0.340364187955856,0
85020,-0.340364187955856,0
85130,-0.34077849984169,0
85240,-0.340364187955856,0
85350,-0.340364187955856,0
85460,-0.339742720127106,0
85570,-0.340571343898773,0
85680,-0.341192841529846,0
85780,-0.341399997472763,0
85890,-0.339949876070023,0
86000,-0.340364187955856,0
86110,-0.339949876070023,0
86220,-0.34160715341568,0
86330,-0.339949876070023,0
86440,-0.340571343898773,0
86550,-0.33932837843895,0
86660,-0.34077849984169,0
86770,-0.34077849984169,0
86880,-0.341192841529846,0
86990,-0.339121222496033,0
87090,-0.341399997472763,0
87200,-0.34077849984169,0
87310,-0.340364187955856,0
87420,-0.340985685586929,0
87530,-0.340157032012939,0
87640,-0.340157032012939,0
87750,-0.340364187955856,0
87860,-0.340571343898773,0
87970,-0.340364187955856,0
88080,-0.339949876070023,0
88190,-0.340157032012939,0
88300,-0.340571343898773,0
88410,-0.340985685586929,0
88510,-0.339742720127106,0
88620,-0.340364187955856,0
88730,-0.340571343898773,0
88840,-0.34160715341568,0
88950,-0.340571343898773,0
89060,-0.340364187955856,0
89170,-0.34077849984169,0
89280,-0.341814309358597,0
89390,-0.34160715341568,0
89500,-0.340157032012939,0
89610,-0.339535564184189,0
89720,-0.341192841529846,0
89820,-0.340157032012939,0
89930,-0.34077849984169,0
90040,-0.340985685586929,0
90150,-0.338914066553116,0
90260,-0.340571343898773,0
90370,-0.34077849984169,0
90480,-0.341192841529846,0
90590,-0.342021465301514,0
90700,-0.340157032012939,0
90810,-0.339742720127106,0
90920,-0.340364187955856,0
91030,-0.339535564184189,0
91140,-0.34077849984169,0
91240,-0.339742720127106,0
91350,-0.340157032012939,0
91460,-0.340364187955856,0
91570,-0.341192841529846,0
91680,-0.340571343898773,0
91790,-0.340571343898773,0
91900,-0.340157032012939,0
92010,-0.340571343898773,0
92120,-0.341399997472763,0
92230,-0.339949876070023,0
92340,-0.340364187955856,0
92450,-0.340985685586929,0
92550,-0.339742720127106,0
92660,-0.340157032012939,0
92770,-0.340157032012939,0
92880,-0.340571343898773,0
92990,-0.340571343898773,0
93100,-0.339949876070023,0
93210,-0.339742720127106,0
93320,-0.342021465301514,0
93430,-0.339742720127106,0
93540,-0.340364187955856,0
93650,-0.341192841529846,0
93760,-0.341399997472763,0
93870,-0.340157032012939,0
93970,-0.339949876070023,0
94080,-0.339742720127106,0
94190,-0.339949876070023,0
94300,-0.340571343898773,0
94410,-0.34077849984169,0
94520,-0.340364187955856,0
94630,-0.339949876070023,0
94740,-0.340985685586929,0
94850,-0.340985685586929,0
94960,-0.340985685586929,0
95070,-0.340157032012939,0
95180,-0.340364187955856,0
95280,-0.342021465301514,0
95390,-0.34077849984169,0
95500,-0.339535564184189,0
95610,-0.339949876070023,0
95720,-0.340364187955856,0
95830,-0.340985685586929,0
95940,-0.340985685586929,0
96050,-0.341192841529846,0
96160,-0.339949876070023,0
96270,-0.34160715341568,0
96380,-0.34160715341568,0
96490,-0.340985685586929,0
96600,-0.341399997472763,0
96700,-0.340364187955856,0
96810,-0.340985685586929,0
96920,-0.340364187955856,0
97030,-0.341192841529846,0
97140,-0.340985685586929,0
97250,-0.340157032012939,0
97360,-0.340985685586929,0
97470,-0.34077849984169,0
97580,-0.340364187955856,0
97690,-0.340364187955856,0
97800,-0.340985685586929,0
97910,-0.34077849984169,0
98010,-0.340364187955856,0
98120,-0.340157032012939,0
98230,-0.34160715341568,0
98340,-0.339949876070023,0
98450,-0.341814309358597,0
98560,-0.339949876070023,0
98670,-0.340157032012939,0
98780,-0.339742720127106,0
98890,-0.341192841529846,0
99000,-0.340985685586929,0
99110,-0.339742720127106,0
99220,-0.340364187955856,0
99330,-0.340571343898773,0
99430,-0.341192841529846,0
99540,-0.34160715341568,0
99650,-0.340985685586929,0
99760,-0.339742720127106,0
99870,-0.340985685586929,0
99980,-0.34243580698967,0
100090,-0.340364187955856,0
100200,-0.339949876070023,0
100310,-0.339121222496033,0
100420,-0.339742720127106,0
100530,-0.340985685586929,0
100640,-0.340364187955856,0
100740,-0.34077849984169,0
100850,-0.34077849984169,0
100960,-0.339949876070023,0
101070,-0.341192841529846,0
101180,-0.339949876070023,0
101290,-0.340571343898773,0
101400,-0.339742720127106,0
101510,-0.340364187955856,0
101620,-0.339742720127106,0
101730,-0.340571343898773,0
101840,-0.34160715341568,0
101950,-0.340571343898773,0
102060,-0.340157032012939,0
102160,-0.34160715341568,0
102270,-0.340364187955856,0
102380,-0.341814309358597,0
102490,-0.340364187955856,0
102600,-0.339742720127106,0
102710,-0.339742720127106,0
102820,-0.340985685586929,0
102930,-0.341192841529846,0
103040,-0.340571343898773,0
103150,-0.34077849984169,0
103260,-0.339949876070023,0
103370,-0.34077849984169,0
103480,-0.341192841529846,0
103580,-0.339949876070023,0
103690,-0.340157032012939,0
103800,-0.340985685586929,0
103910,-0.340571343898773,0
104020,-0.340571343898773,0
104130,-0.340571343898773,0
104240,-0.340985685586929,0
104350,-0.34077849984169,0
104460,-0.340571343898773,0
104570,-0.342021465301514,0
104680,-0.340571343898773,0
104790,-0.340364187955856,0
104890,-0.340571343898773,0
105000,-0.339742720127106,0
105110,-0.34077849984169,0
105220,-0.340571343898773,0
105330,-0.34077849984169,0
105440,-0.339742720127106,0
105550,-0.34077849984169,0
105660,-0.339949876070023,0
105770,-0.340364187955856,0
105880,-0.340157032012939,0
105990,-0.340985685586929,0
106100,-0.340571343898773,0
106210,-0.339535564184189,0
106310,-0.340571343898773,0
106420,-0.340571343898773,0
106530,-0.340571343898773,0
106640,-0.340571343898773,0
106750,-0.340571343898773,0
106860,-0.34160715341568,0
106970,-0.340571343898773,0
107080,-0.33932837843895,0
107190,-0.340985685586929,0
107300,-0.341814309358597,0
107410,-0.340985685586929,0
107520,-0.341192841529846,0
107620,-0.339949876070023,0
107730,-0.341192841529846,0
107840,-0.34160715341568,0
107950,-0.340985685586929,0
108060,-0.340364187955856,0
108170,-0.340571343898773,0
108280,-0.340571343898773,0
108390,-0.341192841529846,0
108500,-0.340571343898773,0
108610,-0.340157032012939,0
108720,-0.340571343898773,0
108830,-0.341192841529846,0
108940,-0.340364187955856,0
109040,-0.340985685586929,0
109150,-0.33932837843895,0
109260,-0.341399997472763,0
109370,-0.34077849984169,0
109480,-0.341192841529846,0
109590,-0.34077849984169,0
109700,-0.340985685586929,0
109810,-0.340364187955856,0
109920,-0.340571343898773,0
110030,-0.341814309358597,0
110140,-0.340985685586929,0
110250,-0.340157032012939,0
110350,-0.34077849984169,0
110460,-0.340571343898773,0
110570,-0.340571343898773,0
110680,-0.340364187955856,0
110790,-0.339742720127106,0
110900,-0.339742720127106,0
111010,-0.340157032012939,0
111120,-0.340985685586929,0
111230,-0.340571343898773,0
111340,-0.341192841529846,0
111450,-0.339949876070023,0
111560,-0.340157032012939,0
111670,-0.341814309358597,0
111770,-0.339742720127106,0
111880,-0.34160715341568,0
111990,-0.340985685586929,0
112100,-0.34077849984169,0
112210,-0.340985685586929,0
112320,-0.339949876070023,0
112430,-0.340364187955856,0
112540,-0.340364187955856,0
112650,-0.340571343898773,0
112760,-0.340571343898773,0
112870,-0.340985685586929,0
112980,-0.339949876070023,0
113080,-0.342021465301514,0
113190,-0.340571343898773,0
113300,-0.341192841529846,0
113410,-0.34077849984169,0
113520,-0.341814309358597,0
113630,-0.339949876070023,0
113740,-0.340985685586929,0
113850,-0.339949876070023,0
113960,-0.34077849984169,0
114070,-0.341399997472763,0
114180,-0.341192841529846,0
114290,-0.340364187955856,0
114400,-0.341192841529846,0
114500,-0.340571343898773,0
114610,-0.34077849984169,0
114720,-0.341814309358597,0
114830,-0.341399997472763,0
114940,-0.340364187955856,0
115050,-0.340571343898773,0
115160,-0.340157032012939,0
115270,-0.341192841529846,0
115380,-0.340571343898773,0
115490,-0.34077849984169,0
115600,-0.340985685586929,0
115710,-0.341814309358597,0
115810,-0.340571343898773,0
115920,-0.34160715341568,0
116030,-0.340364187955856,0
116140,-0.340157032012939,0
116250,-0.340571343898773,0
116360,-0.340364187955856,0
116470,-0.340571343898773,0
116580,-0.341399997472763,0
116690,-0.339742720127106,0
116800,-0.339742720127106,0
116910,-0.340985685586929,0
117020,-0.340571343898773,0
117130,-0.341814309358597,0
117230,-0.34077849984169,0
117340,-0.34077849984169,0
117450,-0.34077849984169,0
117560,-0.341192841529846,0
117670,-0.341399997472763,0
117780,-0.339742720127106,0
117890,-0.339949876070023,0
118000,-0.339742720127106,0
118110,-0.34077849984169,0
118220,-0.340157032012939,0
118330,-0.340157032012939,0
118440,-0.340157032012939,0
118540,-0.341399997472763,0
118650,-0.341192841529846,0
118760,-0.340985685586929,0
118870,-0.341399997472763,0
118980,-0.340985685586929,0
119090,-0.34077849984169,0
119200,-0.340157032012939,0
119310,-0.340985685586929,0
119420,-0.340985685586929,0
119530,-0.340985685586929,0
119640,-0.340364187955856,0
119750,-0.340571343898773,0
119860,-0.340571343898773,0
119960,-0.341814309358597,0
120070,-0.340364187955856,0
120180,-0.34077849984169,0
120290,-0.340157032012939,0
120400,-0.340571343898773,0
120510,-0.339742720127106,0
120620,-0.342021465301514,0
120730,-0.340364187955856,0
120840,-0.339121222496033,0
120950,-0.339949876070023,0
121060,-0.341192841529846,0
121170,-0.34160715341568,0
121270,-0.341399997472763,0
121380,-0.340571343898773,0
121490,-0.340985685586929,0
121600,-0.340985685586929,0
121710,-0.341814309358597,0
121820,-0.341192841529846,0
121930,-0.340364187955856,0
122040,-0.339949876070023,0
122150,-0.341399997472763,0
122260,-0.340364187955856,0
122370,-0.340985685586929,0
122480,-0.341192841529846,0
122590,-0.340985685586929,0
122690,-0.340364187955856,0
122800,-0.340157032012939,0
122910,-0.341399997472763,0
123020,-0.341814309358597,0
123130,-0.339121222496033,0
123240,-0.340571343898773,0
123350,-0.340985685586929,0
123460,-0.34077849984169,0
123570,-0.340364187955856,0
123680,-0.340157032012939,0
123790,-0.340985685586929,0
123900,-0.341192841529846,0
124000,-0.34077849984169,0
124110,-0.341192841529846,0
124220,-0.341814309358597,0
124330,-0.340364187955856,0
124440,-0.33932837843895,0
124550,-0.341192841529846,0
124660,-0.34077849984169,0
124770,-0.340571343898773,0
124880,-0.340571343898773,0
124990,-0.340571343898773,0
125100,-0.340985685586929,0
125210,-0.341399997472763,0
125320,-0.341192841529846,0
125420,-0.340571343898773,0
125530,-0.339742720127106,0
125640,-0.339949876070023,0
125750,-0.340985685586929,0
125860,-0.34077849984169,0
125970,-0.342021465301514,0
126080,-0.339949876070023,0
126190,-0.340157032012939,0
126300,-0.340157032012939,0
126410,-0.340571343898773,0
126520,-0.341399997472763,0
126630,-0.34077849984169,0
126730,-0.340571343898773,0
126840,-0.339742720127106,0
126950,-0.34077849984169,0
127060,-0.340985685586929,0
127170,-0.340157032012939,0
127280,-0.340985685586929,0
127390,-0.340157032012939,0
127500,-0.340571343898773,0
127610,-0.340157032012939,0
127720,-0.340571343898773,0
127830,-0.340571343898773,0
127940,-0.34077849984169,0
128050,-0.340985685586929,0
128150,-0.339949876070023,0
128260,-0.341399997472763,0
128370,-0.340985685586929,0
128480,-0.340157032012939,0
128590,-0.34160715341568,0
128700,-0.341399997472763,0
128810,-0.340364187955856,0
128920,-0.340157032012939,0
129030,-0.339949876070023,0
129140,-0.340985685586929,0
129250,-0.34160715341568,0
129360,-0.341814309358597,0
129460,-0.341192841529846,0
129570,-0.341192841529846,0
129680,-0.340364187955856,0
129790,-0.340364187955856,0
129900,-0.341399997472763,0
130010,-0.339949876070023,0
130120,-0.340985685586929,0
130230,-0.339742720127106,0
130340,-0.339742720127106,0
130450,-0.340364187955856,0
130560,-0.340364187955856,0
130670,-0.340985685586929,0
130780,-0.340571343898773,0
130880,-0.340985685586929,0
130990,-0.340985685586929,0
131100,-0.34077849984169,0
131210,-0.340364187955856,0
131320,-0.340157032012939,0
131430,-0.340571343898773,0
131540,-0.339742720127106,0
131650,-0.340364187955856,0
131760,-0.340985685586929,0
131870,-0.341399997472763,0
131980,-0.340571343898773,0
132090,-0.34160715341568,0
132190,-0.340571343898773,0
132300,-0.340571343898773,0
132410,-0.34077849984169,0
132520,-0.340985685586929,0
132630,-0.340157032012939,0
132740,-0.340364187955856,0
132850,-0.341399997472763,0
132960,-0.341192841529846,0
133070,-0.341399997472763,0
133180,-0.341192841529846,0
133290,-0.341192841529846,0
133400,-0.340157032012939,0
133510,-0.340571343898773,0
133610,-0.341399997472763,0
133720,-0.341192841529846,0
133830,-0.34160715341568,0
133940,-0.340985685586929,0
134050,-0.338499754667282,0
134160,-0.340985685586929,0
134270,-0.340571343898773,0
134380,-0.339742720127106,0
134490,-0.340364187955856,0
134600,-0.341399997472763,0
134710,-0.340571343898773,0
134820,-0.340571343898773,0
134920,-0.340364187955856,0
135030,-0.339742720127106,0
135140,-0.341399997472763,0
135250,-0.340157032012939,0
135360,-0.340571343898773,0
135470,-0.34077849984169,0
135580,-0.34160715341568,0
135690,-0.341192841529846,0
135800,-0.340364187955856,0
135910,-0.340571343898773,0
136020,-0.340985685586929,0
136130,-0.340571343898773,0
136240,-0.340571343898773,0
136340,-0.341399997472763,0
136450,-0.33932837843895,0
136560,-0.340985685586929,0
136670,-0.341399997472763,0
136780,-0.340571343898773,0
136890,-0.342021465301514,0
137000,-0.340364187955856,0
137110,-0.340985685586929,0
137220,-0.339949876070023,0
137330,-0.341399997472763,0
137440,-0.341399997472763,0
137550,-0.341399997472763,0
137650,-0.34077849984169,0
137760,-0.340571343898773,0
137870,-0.340571343898773,0
137980,-0.339949876070023,0
138090,-0.34160715341568,0
138200,-0.340985685586929,0
138310,-0.340157032012939,0
138420,-0.340364187955856,0
138530,-0.340985685586929,0
138640,-0.340985685586929,0
138750,-0.34160715341568,0
138860,-0.341399997472763,0
138970,-0.339535564184189,0
139070,-0.34077849984169,0
139180,-0.342021465301514,0
139290,-0.340571343898773,0
139400,-0.340985685586929,0
139510,-0.341192841529846,0
139620,-0.340571343898773,0
139730,-0.34077849984169,0
139840,-0.340985685586929,0
139950,-0.341399997472763,0
140060,-0.34077849984169,0
140170,-0.341399997472763,0
140280,-0.341192841529846,0
140380,-0.340364187955856,0
140490,-0.338914066553116,0
140600,-0.340157032012939,0
140710,-0.340364187955856,0
140820,-0.341399997472763,0
140930,-0.340571343898773,0
141040,-0.342228621244431,0
141150,-0.342021465301514,0
141260,-0.340985685586929,0
141370,-0.340571343898773,0
141480,-0.33932837843895,0
141590,-0.339121222496033,0
141700,-0.340364187955856,0
141800,-0.340157032012939,0
141910,-0.340985685586929,0
142020,-0.340364187955856,0
142130,-0.342228621244431,0
142240,-0.340364187955856,0
142350,-0.341192841529846,0
142460,-0.340985685586929,0
142570,-0.341192841529846,0
142680,-0.34160715341568,0
142790,-0.34077849984169,0
142900,-0.341399997472763,0
143010,-0.341814309358597,0
143110,-0.341192841529846,0
143220,-0.340985685586929,0
143330,-0.339949876070023,0
143440,-0.341192841529846,0
143550,-0.34243580698967,0
143660,-0.340571343898773,0
143770,-0.34160715341568,0
143880,-0.340571343898773,0
143990,-0.340364187955856,0
144100,-0.341399997472763,0
144210,-0.341399997472763,0
144320,-0.341399997472763,0
144430,-0.341192841529846,0
144530,-0.340985685586929,0
144640,-0.340571343898773,0
144750,-0.340157032012939,0
144860,-0.340571343898773,0
144970,-0.341814309358597,0
145080,-0.34077849984169,0
145190,-0.340985685586929,0
145300,-0.340571343898773,0
145410,-0.34077849984169,0
145520,-0.340571343898773,0
145630,-0.341192841529846,0
145740,-0.341814309358597,0
145840,-0.340364187955856,0
145950,-0.340985685586929,0
146060,-0.340364187955856,0
146170,-0.34077849984169,0
146280,-0.34243580698967,0
146390,-0.341399997472763,0
146500,-0.342021465301514,0
146610,-0.34077849984169,0
146720,-0.34160715341568,0
146830,-0.340364187955856,0
146940,-0.340571343898773,0
147050,-0.340157032012939,0
147160,-0.340157032012939,0
147260,-0.340157032012939,0
147370,-0.340157032012939,0
147480,-0.340985685586929,0
147590,-0.340364187955856,0
147700,-0.340157032012939,0
147810,-0.341192841529846,0
147920,-0.340364187955856,0
148030,-0.340364187955856,0
148140,-0.340157032012939,0
148250,-0.34160715341568,0
148360,-0.339949876070023,0
148470,-0.340571343898773,0
148570,-0.340571343898773,0
148680,-0.341399997472763,0
148790,-0.342021465301514,0
148900,-0.341814309358597,0
149010,-0.339535564184189,0
149120,-0.341192841529846,0
149230,-0.341192841529846,0
149340,-0.340985685586929,0
149450,-0.340364187955856,0
149560,-0.34160715341568,0
149670,-0.34077849984169,0
149780,-0.340364187955856,0
149890,-0.34160715341568,0
149990,-0.340571343898773,0
150100,-0.340985685586929,0
150210,-0.342021465301514,0
150320,-0.341192841529846,0
150430,-0.339535564184189,0
150540,-0.341399997472763,0
150650,-0.340364187955856,0
150760,-0.340157032012939,0
150870,-0.341192841529846,0
150980,-0.341192841529846,0
151090,-0.340364187955856,0
151200,-0.340571343898773,0
151300,-0.341192841529846,0
151410,-0.340985685586929,0
151520,-0.340571343898773,0
151630,-0.340364187955856,0
151740,-0.341192841529846,0
151850,-0.342228621244431,0
151960,-0.341399997472763,0
152070,-0.341814309358597,0
152180,-0.341192841529846,0
152290,-0.340571343898773,0
152400,-0.340157032012939,0
152510,-0.341399997472763,0
152620,-0.341399997472763,0
152720,-0.341192841529846,0
152830,-0.340157032012939,0
152940,-0.340985685586929,0
153050,-0.339949876070023,0
153160,-0.341399997472763,0
153270,-0.340571343898773,0
153380,-0.340985685586929,0
153490,-0.340985685586929,0
153600,-0.340985685586929,0
153710,-0.340571343898773,0
153820,-0.340364187955856,0
153930,-0.341192841529846,0
154030,-0.341192841529846,0
154140,-0.34160715341568,0
154250,-0.340985685586929,0
154360,-0.340571343898773,0
154470,-0.339535564184189,0
154580,-0.341399997472763,0
154690,-0.341192841529846,0
154800,-0.34160715341568,0
154910,-0.340364187955856,0
155020,-0.339742720127106,0
155130,-0.34077849984169,0
155240,-0.340571343898773,0
155350,-0.340571343898773,0
155450,-0.340985685586929,0
155560,-0.340985685586929,0
155670,-0.340985685586929,0
155780,-0.341192841529846,0
155890,-0.342021465301514,0
156000,-0.34160715341568,0
156110,-0.341192841529846,0
156220,-0.340157032012939,0
156330,-0.341399997472763,0
156440,-0.341814309358597,0
156550,-0.340985685586929,0
156660,-0.342228621244431,0
156760,-0.341399997472763,0
156870,-0.341192841529846,0
156980,-0.340571343898773,0
157090,-0.340985685586929,0
157200,-0.341399997472763,0
157310,-0.341814309358597,0
157420,-0.341399997472763,0
157530,-0.342228621244431,0
157640,-0.340571343898773,0
157750,-0.340985685586929,0
157860,-0.34077849984169,0
157970,-0.340364187955856,0
158080,-0.340985685586929,0
158180,-0.341399997472763,0
158290,-0.34077849984169,0
158400,-0.34077849984169,0
158510,-0.340364187955856,0
158620,-0.340985685586929,0
158730,-0.341814309358597,0
158840,-0.341814309358597,0
158950,-0.340157032012939,0
159060,-0.34077849984169,0
159170,-0.34160715341568,0
159280,-0.34077849984169,0
159390,-0.341192841529846,0
159490,-0.34160715341568,0
159600,-0.341192841529846,0
159710,-0.342021465301514,0
159820,-0.339949876070023,0
159930,-0.340985685586929,0
160040,-0.34077849984169,0
160150,-0.340985685586929,0
160260,-0.34077849984169,0
160370,-0.340985685586929,0
160480,-0.340985685586929,0
160590,-0.34160715341568,0
160700,-0.341814309358597,0
160810,-0.34077849984169,0
160910,-0.340985685586929,0
161020,-0.340571343898773,0
161130,-0.341192841529846,0
161240,-0.34077849984169,0
161350,-0.339742720127106,0
161460,-0.34160715341568,0
161570,-0.34077849984169,0
161680,-0.340157032012939,0
161790,-0.339535564184189,0
161900,-0.34160715341568,0
162010,-0.340571343898773,0
162120,-0.341192841529846,0
162220,-0.342642962932587,0
162330,-0.340364187955856,0
162440,-0.341399997472763,0
162550,-0.339949876070023,0
162660,-0.340985685586929,0
162770,-0.340364187955856,0
162880,-0.34077849984169,0
162990,-0.340985685586929,0
163100,-0.340985685586929,0
163210,-0.341192841529846,0
163320,-0.340571343898773,0
163430,-0.340364187955856,0
163540,-0.341192841529846,0
163640,-0.340571343898773,0
163750,-0.340985685586929,0
163860,-0.340985685586929,0
163970,-0.34077849984169,0
164080,-0.340571343898773,0
164190,-0.34160715341568,0
164300,-0.34160715341568,0
164410,-0.341814309358597,0
164520,-0.340571343898773,0
164630,-0.339742720127106,0
164740,-0.342021465301514,0
164850,-0.340571343898773,0
164950,-0.340571343898773,0
165060,-0.341814309358597,0
165170,-0.340571343898773,0
165280,-0.340364187955856,0
165390,-0.340571343898773,0
165500,-0.34077849984169,0
165610,-0.342021465301514,0
165720,-0.34160715341568,0
165830,-0.341814309358597,0
165940,-0.341399997472763,0
166050,-0.340157032012939,0
166160,-0.341192841529846,0
166270,-0.342228621244431,0
166370,-0.34077849984169,0
166480,-0.34077849984169,0
166590,-0.341192841529846,0
166700,-0.340364187955856,0
166810,-0.340985685586929,0
166920,-0.340364187955856,0
167030,-0.341399997472763,0
167140,-0.340157032012939,0
167250,-0.34077849984169,0
167360,-0.341192841529846,0
167470,-0.34160715341568,0
167580,-0.341399997472763,0
167680,-0.340571343898773,0
167790,-0.340364187955856,0
167900,-0.339742720127106,0
168010,-0.341399997472763,0
168120,-0.34160715341568,0
168230,-0.340157032012939,0
168340,-0.340571343898773,0
168450,-0.340157032012939,0
168560,-0.34160715341568,0
168670,-0.341192841529846,0
168780,-0.341814309358597,0
168890,-0.341399997472763,0
169000,-0.340985685586929,0
169100,-0.340571343898773,0
169210,-0.341192841529846,0
169320,-0.341192841529846,0
169430,-0.341399997472763,0
169540,-0.341399997472763,0
169650,-0.34077849984169,0
169760,-0.340985685586929,0
169870,-0.340571343898773,0
169980,-0.341399997472763,0
170090,-0.341399997472763,0
170200,-0.34077849984169,0
170310,-0.341399997472763,0
170410,-0.341399997472763,0
170520,-0.340571343898773,0
170630,-0.340985685586929,0
170740,-0.341192841529846,0
170850,-0.340571343898773,0
170960,-0.339949876070023,0
171070,-0.341814309358597,0
171180,-0.340571343898773,0
171290,-0.340364187955856,0
171400,-0.341814309358597,0
171510,-0.342021465301514,0
171620,-0.341399997472763,0
171730,-0.341399997472763,0
171830,-0.340571343898773,0
171940,-0.341399997472763,0
172050,-0.340364187955856,0
172160,-0.340571343898773,0
172270,-0.34160715341568,0
172380,-0.341192841529846,0
172490,-0.342021465301514,0
172600,-0.341399997472763,0
172710,-0.339949876070023,0
172820,-0.342021465301514,0
172930,-0.341814309358597,0
173040,-0.339949876070023,0
173140,-0.340364187955856,0
173250,-0.340157032012939,0
173360,-0.340364187955856,0
173470,-0.34077849984169,0
173580,-0.34160715341568,0
173690,-0.34160715341568,0
173800,-0.340985685586929,0
173910,-0.34077849984169,0
174020,-0.34077849984169,0
174130,-0.341399997472763,0
174240,-0.34077849984169,0
174350,-0.340157032012939,0
174460,-0.340157032012939,0
174560,-0.340364187955856,0
174670,-0.34160715341568,0
174780,-0.340571343898773,0
174890,-0.340157032012939,0
175000,-0.340985685586929,0
175110,-0.33932837843895,0
175220,-0.34160715341568,0
175330,-0.34160715341568,0
175440,-0.340985685586929,0
175550,-0.340364187955856,0
175660,-0.340985685586929,0
175770,-0.341814309358597,0
175870,-0.340985685586929,0
175980,-0.341399997472763,0
176090,-0.340985685586929,0
176200,-0.340985685586929,0
176310,-0.341192841529846,0
176420,-0.340364187955856,0
176530,-0.340364187955856,0
176640,-0.340985685586929,3.387464635082
176750,-0.340364187955856,3.387464635082
176860,-0.340571343898773,3.64786881413638
176980,-0.34243580698967,70.5469356909598
177080,-0.341814309358597,70.2344446822132
177190,-0.340571343898773,70.4688241778398
177290,-0.340157032012939,64.2047767384225
177400,-0.34160715341568,63.7786413036371
177510,-0.341192841529846,63.7786413036371
177620,-0.341192841529846,63.5655684775643
177730,-0.340157032012939,63.849662173208
177840,-0.340571343898773,63.9917141297098
177950,-0.34077849984169,63.9917141297098
178060,-0.340985685586929,63.849662173208
178170,-0.341192841529846,63.9917039123498
178280,-0.34077849984169,64.2757976079934
178390,-0.340364187955856,64.7729539123498
178500,-0.340985685586929,64.6309019558479
178600,-0.340364187955856,64.4178393471352
178710,-0.340985685586929,64.7729436949897
178820,-0.341399997472763,64.4888499993461
178930,-0.340571343898773,64.4888499993461
179040,-0.340571343898773,64.9149854341316
179150,-0.340364187955856,64.9860063037025
179260,-0.341192841529846,64.7019126080588
179370,-0.340157032012939,64.8439543472006
179480,-0.341192841529846,64.7019023906988
179590,-0.34077849984169,65.1280378254842
179700,-0.341192841529846,65.270079564626
179810,-0.34077849984169,65.6251941298406
179920,-0.339742720127106,56.0100011066231
180020,-0.341192841529846,55.7095183422785
180130,-0.341399997472763,55.6494235185083
180240,-0.340571343898773,56.1301907541637
180350,-0.340985685586929,56.0700872849001
180460,-0.340364187955856,56.1902769324407
180570,-0.340364187955856,56.430664873015
180680,-0.340364187955856,56.430664873015
180790,-0.341814309358597,56.1902855779339
180900,-0.340571343898773,56.1301907541637
181010,-0.342228621244431,55.8898114590826
181120,-0.340571343898773,55.7696218115421
181230,-0.340985685586929,55.7095183422785
181340,-0.341399997472763,55.6494235185083
181440,-0.34160715341568,55.6494235185083
181550,-0.34160715341568,55.589328694738
181660,-0.340985685586929,55.4691304017042
181770,-0.34160715341568,55.1085528135893
181880,-0.340985685586929,54.7479752254745
181990,-0.340571343898773,54.9883631660488
182100,-0.34160715341568,54.9883631660488
182210,-0.341814309358597,54.5075959303934
182320,-0.339535564184189,50.8932883595709
182430,-0.340985685586929,50.6700706332977
182540,-0.341192841529846,50.7816754824489
182650,-0.341192841529846,50.7816754824489
182750,-0.342021465301514,50.7258730578733
182860,-0.342021465301514,50.5584657841465
182970,-0.340985685586929,50.5584657841465
183080,-0.340571343898773,50.5584657841465
183190,-0.34160715341568,50.4468609349953
183300,-0.34077849984169,50.5584738121172
183410,-0.340985685586929,50.6700786612684
183520,-0.341192841529846,50.7258810858441
183630,-0.34160715341568,50.5026633595709
183740,-0.339742720127106,50.8374859349953
183850,-0.340985685586929,50.7258730578733
183960,-0.341814309358597,50.6142682087221
184070,-0.341399997472763,50.6142682087221
184170,-0.341192841529846,50.5026553316001
184280,-0.341192841529846,50.5584577561758
184390,-0.341192841529846,50.6142601807514
184500,-0.340985685586929,50.5026473036294
184610,-0.340364187955856,50.670062605327
184720,-0.341399997472763,50.6142601807514
184830,-0.341814309358597,50.279437605327
184940,-0.340571343898773,50.1120303316001
185050,-0.340571343898773,50.4468529070245
185160,-0.341399997472763,50.2236351807514
185270,-0.340985685586929,50.0562198790538
185380,-0.340571343898773,50.3910424544782
185480,-0.340571343898773,50.7816674544782
185590,-0.341399997472763,50.7816674544782
185700,-0.340985685586929,50.8932723036294
185810,-0.339949876070023,51.0606795773562
185920,-0.34160715341568,51.0048771527806
186030,-0.340571343898773,50.949074728205
186140,-0.341192841529846,50.7816594265075
186250,-0.34077849984169,51.0048771527806
186360,-0.340985685586929,51.0606795773562
186470,-0.34077849984169,51.3955021527806
186580,-0.341192841529846,51.4513045773562
186690,-0.341399997472763,51.0606795773562
186800,-0.341399997472763,51.2280868510831
186900,-0.340571343898773,51.5629094265075
187010,-0.342021465301514,51.0048771527806
187120,-0.34077849984169,50.8932723036294
187230,-0.341192841529846,50.6142521527806
187340,-0.34077849984169,50.5026473036294
187450,-0.34077849984169,50.5026473036294
187560,-0.341192841529846,50.6142521527806
187670,-0.341399997472763,50.6700545773562
187780,-0.342228621244431,50.3352400299026
187890,-0.338706910610199,50.8932723036294
188000,-0.340157032012939,51.0606795773562
188110,-0.341399997472763,51.0606795773562
188210,-0.340364187955856,51.1722844265075
188320,-0.34077849984169,51.0048771527806
188430,-0.34160715341568,50.6142521527806
188540,-0.34160715341568,50.2794295773562
188650,-0.340571343898773,50.558449728205
188760,-0.341814309358597,50.2236271527806
188870,-0.339949876070023,50.2794295773562
188980,-0.34160715341568,50.1120223036294
189090,-0.340157032012939,49.8888045773562
189200,-0.341399997472763,49.9446070019319
189310,-0.340985685586929,50.1120142756587
189420,-0.341192841529846,50.0562118510831
189530,-0.340364187955856,50.0562118510831
189630,-0.341399997472763,49.9446070019319
189740,-0.340985685586929,50.1678167002343
189850,-0.34160715341568,50.0004094265075
189960,-0.342228621244431,49.777199728205
190070,-0.342228621244431,49.4423851807514
190180,-0.341399997472763,49.3307803316002
190290,-0.340571343898773,49.4981956332977
190400,-0.34077849984169,49.3865907841465
190510,-0.34160715341568,49.0517682087221
190620,-0.340985685586929,49.0517682087221
190730,-0.341192841529846,48.8285504824489
190840,-0.341399997472763,48.6053327561758
190940,-0.340985685586929,48.9959577561758
191050,-0.341814309358597,48.9959577561758
191160,-0.341399997472763,48.7727400299026
191270,-0.340364187955856,48.716937605327
191380,-0.340364187955856,49.0517601807514
191490,-0.340985685586929,49.107562605327
191600,-0.340571343898773,49.2749779070245
191710,-0.34077849984169,49.1075706332977
191820,-0.34077849984169,49.0517682087221
191930,-0.34160715341568,48.8285504824489
192040,-0.340571343898773,48.9401633595709
192150,-0.34077849984169,49.0517762366928
192260,-0.34077849984169,49.0517762366928
192360,-0.341192841529846,48.8285585104197
192470,-0.342850118875504,48.3263286612684
192580,-0.342021465301514,47.8799012366928
192690,-0.341399997472763,47.7682963875416
192800,-0.341399997472763,47.7682963875416
192910,-0.341399997472763,47.5450786612684
193020,-0.341192841529846,47.3776633595709
193130,-0.340571343898773,47.3218609349953
193240,-0.34160715341568,47.2102560858441
193350,-0.34160715341568,46.8196310858441
193460,-0.34160715341568,46.7080262366928
193570,-0.34160715341568,46.4848085104197
193670,-0.339949876070023,46.8196310858441
193780,-0.341814309358597,46.5406109349953
193890,-0.341814309358597,45.9825786612684
194000,-0.341192841529846,45.9825786612684
194110,-0.340364187955856,46.2615988121172
194220,-0.342021465301514,45.8709738121172
194330,-0.339742720127106,46.2057963875416
194440,-0.341399997472763,45.9267762366928
194550,-0.34077849984169,45.8151713875416
194660,-0.340364187955856,45.8151713875416
194770,-0.340571343898773,46.149993962966
194880,-0.341814309358597,45.8151713875416
194990,-0.341814309358597,45.9267762366928
195090,-0.341192841529846,45.7593609349953
195200,-0.341399997472763,45.6477560858441
195310,-0.339949876070023,46.0383810858441
195420,-0.341814309358597,45.9825786612684
195530,-0.34160715341568,45.9825786612684
195640,-0.34077849984169,46.0383891138148
195750,-0.340364187955856,46.3732116892392
195860,-0.340571343898773,46.4848245663611
195970,-0.341192841529846,46.3174092646636
196080,-0.34160715341568,46.3174092646636
196190,-0.342021465301514,46.261606840088
196300,-0.340985685586929,45.870981840088
196400,-0.340985685586929,45.870981840088
196510,-0.341399997472763,45.8151794155124
196620,-0.341399997472763,45.7593769909367
196730,-0.339949876070023,46.3174092646636
196840,-0.339949876070023,46.8754415383904
196950,-0.341192841529846,46.8196391138148
197060,-0.341192841529846,46.6522238121172
197170,-0.340364187955856,46.9870463875416
197280,-0.34077849984169,46.9870463875416
197390,-0.340571343898773,47.0986592646636
197500,-0.34160715341568,46.9870544155124
197610,-0.341399997472763,47.042856840088
197720,-0.342021465301514,46.4290221417855
197820,-0.34077849984169,46.4848325943319
197930,-0.34160715341568,46.5406350189075
198040,-0.340571343898773,46.7638527451807
198150,-0.34160715341568,46.6522478960294
198260,-0.341192841529846,46.6522478960294
198370,-0.34160715341568,46.5406430468782
198480,-0.339949876070023,46.819663197727
198590,-0.341192841529846,46.5964454714538
198700,-0.342021465301514,46.429038197727
198810,-0.340985685586929,46.6522478960294
198920,-0.34077849984169,46.5964454714538
199030,-0.340364187955856,46.6522478960294
199130,-0.340571343898773,46.8754656223026
199240,-0.34160715341568,46.7080583485758
199350,-0.340985685586929,46.5964454714538
199460,-0.34077849984169,46.5406430468782
199570,-0.341399997472763,46.5406430468782
199680,-0.340571343898773,46.6522559240002
199790,-0.340571343898773,46.4848486502733
199900,-0.341192841529846,46.5964534994246
200010,-0.341192841529846,46.429038197727
200120,-0.340985685586929,46.4848406223026
200230,-0.342021465301514,46.1500180468782
200340,-0.34077849984169,46.2058284994246
200450,-0.34077849984169,46.2058284994246
200550,-0.341192841529846,46.2058284994246
200660,-0.341192841529846,46.2616309240002
200770,-0.340985685586929,46.3732357731514
200880,-0.340571343898773,46.3732357731514
200990,-0.340985685586929,46.6522478960294
201100,-0.341192841529846,46.5406350189075
201210,-0.34077849984169,46.6522478960294
201320,-0.341399997472763,46.4848325943319
201430,-0.340571343898773,46.5406350189075
201540,-0.34160715341568,46.4290301697563
201650,-0.34160715341568,46.3732277451807
201760,-0.342021465301514,46.4290301697563
201860,-0.340985685586929,45.8151874434831
201970,-0.34077849984169,45.6477801697563
202080,-0.340571343898773,45.8709978960294
202190,-0.341399997472763,45.5919777451807
202300,-0.341399997472763,45.4245624434831
202410,-0.341814309358597,45.3687600189075
202520,-0.341814309358597,45.3129575943319
202630,-0.340985685586929,45.2013447172099
202740,-0.341814309358597,45.2013447172099
202850,-0.341399997472763,44.8107197172099
202960,-0.340985685586929,44.9781269909367
203070,-0.341814309358597,44.5316995663611
203180,-0.340985685586929,44.6433044155124
203280,-0.34077849984169,44.6991148680587
203390,-0.342021465301514,44.4759051697563
203500,-0.342228621244431,43.973675320605
203610,-0.341399997472763,43.973675320605
203720,-0.341192841529846,43.9178728960294
203830,-0.342228621244431,43.7504656223026
203940,-0.341192841529846,44.0294777451807
204050,-0.340364187955856,44.5317075943319
204160,-0.341192841529846,44.5875100189075
204270,-0.34077849984169,44.5317075943319
204380,-0.340157032012939,44.6991148680587
204490,-0.341192841529846,44.8107197172099
204590,-0.340571343898773,44.9223325943319
204700,-0.34077849984169,45.0339454714538
204810,-0.34077849984169,45.2013607731514
204920,-0.340985685586929,45.2013607731514
205030,-0.341399997472763,45.3129656223026
205140,-0.34160715341568,45.257163197727
205250,-0.339949876070023,45.3687680468782
205360,-0.341192841529846,45.145550320605
205470,-0.34160715341568,44.9781430468782
205580,-0.341192841529846,44.8107277451807
205690,-0.342021465301514,44.4759051697563
205800,-0.341192841529846,44.3642922926343
205910,-0.341814309358597,44.3084898680587
206010,-0.341192841529846,44.1410745663611
206120,-0.340571343898773,44.1968769909367
206230,-0.341192841529846,44.0852641138148
206340,-0.341399997472763,44.0294616892392
206450,-0.342021465301514,44.2526794155124
206560,-0.340364187955856,44.699106840088
206670,-0.342228621244431,44.4758971417855
206780,-0.340985685586929,44.5875019909367
206890,-0.34160715341568,44.5316995663611
207000,-0.340571343898773,44.6991148680587
207110,-0.341399997472763,44.4758971417855
207220,-0.341192841529846,44.5875019909367
207320,-0.340157032012939,44.9781269909367
207430,-0.341192841529846,45.089731840088
207540,-0.342021465301514,44.9781269909367
207650,-0.341192841529846,44.6433044155124
207760,-0.342228621244431,44.5316995663611
207870,-0.342021465301514,44.4758971417855
207980,-0.341814309358597,44.3084898680587
208090,-0.340571343898773,44.2526874434831
208200,-0.34160715341568,44.3642922926343
208310,-0.340571343898773,44.1410825943319
208420,-0.341192841529846,44.1968850189075
208530,-0.341399997472763,44.0294697172099
208640,-0.340571343898773,43.9736672926343
208740,-0.340364187955856,44.0294697172099
208850,-0.339949876070023,44.5316995663611
208960,-0.340571343898773,44.8665221417855
209070,-0.340364187955856,45.0897398680587
209180,-0.342850118875504,44.6991148680587
209290,-0.340985685586929,44.4200947172099
209400,-0.341399997472763,44.5316995663611
209510,-0.342228621244431,44.3642922926343
209620,-0.34077849984169,44.3642922926343
209730,-0.341399997472763,44.0852721417855
209840,-0.34077849984169,44.0294697172099
209950,-0.34160715341568,43.9178648680587
210050,-0.340985685586929,44.0852721417855
210160,-0.342228621244431,44.0294697172099
210270,-0.340364187955856,44.1968850189075
210380,-0.340364187955856,44.364300320605
210490,-0.34160715341568,44.3084978960294
210600,-0.341814309358597,44.1968930468782
210710,-0.341192841529846,43.8620704714538
210820,-0.341399997472763,43.4714454714538
210930,-0.34077849984169,43.5830583485758
211040,-0.34243580698967,43.2482357731514
211150,-0.341399997472763,42.9692156223026
211260,-0.340364187955856,43.0808204714538
211370,-0.341192841529846,42.9134051697563
211470,-0.342228621244431,42.7459978960294
211580,-0.34160715341568,42.6901954714538
211690,-0.341399997472763,42.8576027451807
211800,-0.34160715341568,42.6343850189075
211910,-0.340571343898773,42.9134051697563
212020,-0.340571343898773,42.9134051697563
212130,-0.340364187955856,43.2482277451807
212240,-0.342021465301514,43.0250180468782
212350,-0.341399997472763,43.0808204714538
212460,-0.341192841529846,42.7459978960294
212570,-0.341192841529846,42.7459978960294
212680,-0.340985685586929,43.0250100189075
212780,-0.34160715341568,42.8576027451807
212890,-0.34077849984169,42.8576027451807
213000,-0.34077849984169,42.7459978960294
213110,-0.342021465301514,42.3553728960294
213220,-0.341192841529846,42.4669777451807
213330,-0.341192841529846,42.411175320605
213440,-0.33932837843895,42.801800320605
213550,-0.340364187955856,43.0808204714538
213660,-0.341399997472763,42.8576027451807
213770,-0.340571343898773,42.8576027451807
213880,-0.34160715341568,42.7459978960294
213990,-0.339949876070023,43.0808204714538
214100,-0.340985685586929,43.0808204714538
214200,-0.341192841529846,43.3040301697563
214310,-0.34077849984169,43.3040301697563
214420,-0.340157032012939,43.4714374434831
214530,-0.342021465301514,43.2482277451807
214640,-0.342021465301514,43.0250180468782
214750,-0.342228621244431,42.6902034994246
214860,-0.34077849984169,42.6344010748489
214970,-0.341399997472763,42.5227962256977
215080,-0.340364187955856,42.7460139519709
215190,-0.34160715341568,42.5227962256977
215300,-0.34077849984169,42.6902115273953
215410,-0.341814309358597,42.3553889519709
215510,-0.341399997472763,42.4111913765465
215620,-0.342228621244431,42.2437841028197
215730,-0.340985685586929,42.5227962256977
215840,-0.340364187955856,42.6902115273953
215950,-0.340157032012939,42.8576188011221
216060,-0.342228621244431,42.4111913765465
216170,-0.341192841529846,42.4669938011221
216280,-0.341399997472763,42.4669938011221
216390,-0.34077849984169,42.7460139519709
216500,-0.340364187955856,43.1366389519709
216610,-0.34077849984169,43.1924494045172
216720,-0.342228621244431,43.080844555366
216830,-0.340985685586929,43.1924494045172
216930,-0.341814309358597,42.9692397062148
217040,-0.340364187955856,43.3598647062148
217150,-0.34077849984169,43.4156751587611
217260,-0.34077849984169,43.4156751587611
217370,-0.34160715341568,43.5272800079124
217480,-0.340985685586929,43.862094555366
217590,-0.34077849984169,44.0295098570636
217700,-0.342021465301514,43.8063001587611
217810,-0.340985685586929,44.1411147062148
217920,-0.340985685586929,44.1969171307904
218030,-0.340364187955856,44.1969171307904
218140,-0.340985685586929,44.252719555366
218240,-0.340985685586929,44.1969091028197
218350,-0.340571343898773,44.0853042536685
218460,-0.340985685586929,44.1411066782441
218570,-0.340364187955856,44.1969091028197
218680,-0.34160715341568,43.9736913765465
218790,-0.340571343898773,44.0294938011221
218900,-0.340985685586929,44.0294938011221
219010,-0.340985685586929,44.1410986502733
219120,-0.342021465301514,44.0294938011221
219230,-0.341814309358597,43.5272639519709
219340,-0.341192841529846,43.5272639519709
219450,-0.340364187955856,43.8620865273953
219560,-0.340985685586929,43.9178889519709
219660,-0.340157032012939,44.4201188011221
219770,-0.340364187955856,44.6433365273953
219880,-0.340364187955856,45.0339615273953
219990,-0.341399997472763,44.9781591028197
220100,-0.341192841529846,44.8107438011221
220210,-0.340571343898773,44.9781591028197
220320,-0.342228621244431,44.7549494045172
220430,-0.341814309358597,44.8107518290929
220540,-0.340985685586929,44.6433365273953
220650,-0.341814309358597,44.7549413765465
220760,-0.34077849984169,44.8107518290929
220870,-0.340985685586929,44.9781591028197
220970,-0.340985685586929,44.8665462256977
221080,-0.341399997472763,44.8665462256977
221190,-0.342021465301514,44.6433365273953
221300,-0.340985685586929,44.4201188011221
221410,-0.34160715341568,44.3085139519709
221520,-0.341192841529846,44.5317236502733
221630,-0.341399997472763,44.4759212256977
221740,-0.341192841529846,44.7549333485758
221850,-0.340364187955856,45.2013607731514
221960,-0.341192841529846,45.3687680468782
222070,-0.342228621244431,44.9223406223026
222180,-0.341399997472763,44.9781430468782
222290,-0.34160715341568,44.6991228960294
222390,-0.342021465301514,44.475913197727
222500,-0.340571343898773,44.6991309240002
222610,-0.340571343898773,44.6991309240002
222720,-0.341192841529846,44.475913197727
222830,-0.341399997472763,44.085288197727
222940,-0.340157032012939,44.1968930468782
223050,-0.342228621244431,43.694663197727
223160,-0.342228621244431,43.8620784994246
223270,-0.339949876070023,44.1410986502733
223380,-0.341399997472763,44.1410986502733
223490,-0.34160715341568,44.3085059240002
223600,-0.340985685586929,44.2526954714538
223700,-0.341399997472763,44.2526954714538
223810,-0.34160715341568,44.0294777451807
223920,-0.341192841529846,44.1410825943319
224030,-0.340985685586929,44.1410825943319
224140,-0.340571343898773,44.5875100189075
224250,-0.34077849984169,44.4759051697563
224360,-0.340985685586929,44.3084898680587
224470,-0.340985685586929,44.4758971417855
224580,-0.340364187955856,44.8665221417855
224690,-0.340985685586929,44.9223245663611
224800,-0.340157032012939,45.2571471417855
224910,-0.342228621244431,44.8665221417855
225020,-0.341192841529846,45.2013447172099
225120,-0.341399997472763,45.2013447172099
225230,-0.340571343898773,45.1455422926343
225340,-0.342642962932587,44.7549172926343
225450,-0.340985685586929,45.089731840088
225560,-0.341192841529846,45.2013366892392
225670,-0.341399997472763,45.2013366892392
225780,-0.34077849984169,45.4245544155124
225890,-0.340985685586929,45.3129415383904
226000,-0.340571343898773,45.3129415383904
226110,-0.34077849984169,45.2013366892392
226220,-0.340985685586929,45.4803488121172
226330,-0.34077849984169,45.6477641138148
226430,-0.341192841529846,45.6477641138148
226540,-0.340571343898773,45.8151794155124
226650,-0.340985685586929,45.8151794155124
226760,-0.340985685586929,45.9825866892392
226870,-0.341814309358597,45.7035665383904
226980,-0.341192841529846,45.5919536612684
227090,-0.340571343898773,45.9825786612684
227200,-0.34077849984169,46.0941915383904
227310,-0.340985685586929,46.149993962966
227420,-0.340985685586929,45.7035585104197
227530,-0.340985685586929,45.5361432087221
227640,-0.340364187955856,45.8151633595709
227750,-0.340157032012939,45.9267682087221
227850,-0.342021465301514,45.8151633595709
227960,-0.34160715341568,45.3687359349953
228070,-0.340157032012939,45.5919536612684
228180,-0.341192841529846,45.5919536612684
228290,-0.341192841529846,45.4803407841465
228400,-0.34077849984169,45.3129335104197
228510,-0.340364187955856,45.7593609349953
228620,-0.34160715341568,45.8709657841465
228730,-0.340571343898773,46.3173932087221
228840,-0.341814309358597,46.0383730578733
228950,-0.34077849984169,46.2057883595709
229060,-0.341814309358597,45.8151633595709
229160,-0.341192841529846,45.9267682087221
229270,-0.340985685586929,45.8709577561758
229380,-0.340157032012939,46.3173851807514
229490,-0.34077849984169,46.4848004824489
229600,-0.341192841529846,46.763812605327
229710,-0.342021465301514,46.4848004824489
229820,-0.34077849984169,46.3731956332977
229930,-0.34077849984169,46.2057883595709
230040,-0.340571343898773,46.6522157841465
230150,-0.34160715341568,46.5406109349953
230260,-0.34077849984169,46.7080262366928
230370,-0.341192841529846,46.5964133595709
230480,-0.340985685586929,46.4289980578733
230580,-0.341192841529846,46.3173851807514
230690,-0.340157032012939,46.8754174544782
230800,-0.340985685586929,46.8754174544782
230910,-0.342642962932587,46.652199728205
231020,-0.341399997472763,46.3731795773562
231130,-0.34077849984169,46.3731795773562
231240,-0.342021465301514,46.0383570019319
231350,-0.341814309358597,45.9825545773562
231460,-0.341814309358597,45.7593448790538
231570,-0.340157032012939,45.9267521527806
231680,-0.34160715341568,46.0383570019319
231790,-0.34160715341568,45.870949728205
231890,-0.340571343898773,45.982562605327
232000,-0.340364187955856,45.982562605327
232110,-0.342021465301514,45.7035504824489
232220,-0.341192841529846,45.6477480578733
232330,-0.341399997472763,45.4245303316002
232440,-0.340985685586929,45.4245303316002
232550,-0.34077849984169,45.3129254824489
232660,-0.340364187955856,45.6477480578733
232770,-0.341814309358597,45.3129254824489
232880,-0.342021465301514,45.0339133595709
232990,-0.340985685586929,45.0339133595709
233100,-0.341399997472763,45.2013206332977
233210,-0.340985685586929,45.4245303316002
233310,-0.339949876070023,45.7593529070245
233420,-0.34077849984169,45.6477480578733
233530,-0.340985685586929,45.6477480578733
233640,-0.340985685586929,45.4245303316002
233750,-0.34160715341568,45.0897077561758
233860,-0.341192841529846,44.8664900299026
233970,-0.34160715341568,44.810687605327
234080,-0.340364187955856,45.0339053316002
234190,-0.341399997472763,44.810687605327
234300,-0.339742720127106,45.480324728205
234410,-0.341399997472763,45.5919295773562
234520,-0.34160715341568,45.4245223036294
234620,-0.341192841529846,45.5919295773562
234730,-0.340985685586929,45.5361191248099
234840,-0.341814309358597,45.3129094265075
234950,-0.342228621244431,44.9780948790538
235060,-0.340985685586929,45.089699728205
235170,-0.34160715341568,45.2013045773562
235280,-0.340571343898773,45.3129174544782
235390,-0.339535564184189,45.870949728205
235500,-0.341814309358597,45.7035424544782
235610,-0.340571343898773,45.9267601807514
235720,-0.342021465301514,45.7035504824489
235830,-0.34160715341568,45.3687279070245
235940,-0.340571343898773,45.5361432087221
236040,-0.341814309358597,45.6477480578733
236150,-0.339742720127106,46.0941754824489
236260,-0.341192841529846,46.2057803316002
236370,-0.340571343898773,46.5964053316002
236480,-0.340985685586929,46.4847924544782
236590,-0.34077849984169,46.4289900299026
236700,-0.340985685586929,46.4847924544782
236810,-0.340985685586929,46.5963973036294
236920,-0.342642962932587,45.9267521527806
237030,-0.341192841529846,46.2057642756587
237140,-0.34077849984169,46.5963892756587
237250,-0.34160715341568,46.1499618510831
237350,-0.341192841529846,46.2057642756587
237460,-0.342021465301514,46.0941594265075
237570,-0.340571343898773,46.2057723036294
237680,-0.340571343898773,46.4289900299026
237790,-0.340571343898773,46.7080101807514
237900,-0.341814309358597,46.5406029070245
238010,-0.34160715341568,46.3731956332977
238120,-0.341192841529846,46.2057803316002
238230,-0.341192841529846,46.0941674544782
238340,-0.340985685586929,46.0941674544782
238450,-0.341192841529846,46.0383650299026
238560,-0.340985685586929,45.870949728205
238670,-0.340985685586929,45.870949728205
238770,-0.34160715341568,45.480324728205
238880,-0.341814309358597,45.5919295773562
238990,-0.340157032012939,45.870949728205
239100,-0.340985685586929,45.9825545773562
239210,-0.34160715341568,45.7035344265075
239320,-0.340571343898773,46.261574728205
239430,-0.342021465301514,45.982562605327
239540,-0.34160715341568,45.8709577561758
239650,-0.340985685586929,45.982562605327
239760,-0.34160715341568,45.7593448790538
239870,-0.341814309358597,45.5361351807514
239980,-0.340985685586929,45.4245223036294
240080,-0.341192841529846,45.3129094265075
240190,-0.340364187955856,45.480324728205
240300,-0.341399997472763,45.3129094265075
240410,-0.340985685586929,45.3687118510831
240520,-0.34160715341568,45.0896917002343
240630,-0.341192841529846,45.0338892756587
240740,-0.340985685586929,45.0338892756587
240850,-0.34160715341568,45.0896917002343
240960,-0.340985685586929,45.1454941248099
241070,-0.341399997472763,44.9222763985367
241180,-0.341192841529846,44.8106635214148
241290,-0.34160715341568,44.6432562476879
241400,-0.340985685586929,44.6432562476879
241500,-0.340364187955856,44.8106715493855
241610,-0.340571343898773,44.7548691248099
241720,-0.340985685586929,44.5316513985367
241830,-0.34160715341568,44.6432562476879
241940,-0.341192841529846,44.7548610968392
242050,-0.341814309358597,44.3084336722636
242160,-0.34160715341568,44.1968288231123
242270,-0.340571343898773,44.3642441248099
242380,-0.341814309358597,44.0852239739611
242490,-0.341399997472763,43.8062038231123
242600,-0.340571343898773,44.0852239739611
242710,-0.340985685586929,43.9736110968392
242810,-0.34077849984169,44.2526312476879
242920,-0.340364187955856,44.3642360968392
243030,-0.34077849984169,44.6432562476879
243140,-0.340571343898773,44.8106715493855
243250,-0.340571343898773,44.9222844265075
243360,-0.340985685586929,44.6990667002343
243470,-0.34077849984169,44.6990667002343
243580,-0.340571343898773,44.8664820019319
243690,-0.341192841529846,45.0896917002343
243800,-0.340364187955856,45.2012965493855
243910,-0.342642962932587,44.6990586722636
244020,-0.34077849984169,44.6432562476879
244130,-0.341192841529846,44.7548610968392
244230,-0.340157032012939,44.922268370566
244340,-0.34160715341568,44.8106635214148
244450,-0.340364187955856,44.9780788231123
244560,-0.341814309358597,44.8106715493855
244670,-0.341399997472763,44.4758489739611
244780,-0.340157032012939,44.6990667002343
244890,-0.34160715341568,44.9780868510831
245000,-0.340364187955856,45.2571070019319
245110,-0.340571343898773,45.3129094265075
245220,-0.340364187955856,45.7593368510831
245330,-0.341399997472763,45.8709417002343
245440,-0.340985685586929,46.0941513985367
245540,-0.341399997472763,45.7593288231123
245650,-0.34077849984169,45.9825465493855
245760,-0.341814309358597,45.9267441248099
245870,-0.340157032012939,46.0383489739611
245980,-0.340985685586929,45.8709336722636
246090,-0.340571343898773,46.2615586722636
246200,-0.341192841529846,46.2615586722636
246310,-0.341814309358597,46.1499538231123
246420,-0.34160715341568,45.9825465493855
246530,-0.341192841529846,45.8709336722636
246640,-0.342021465301514,45.4245062476879
246750,-0.340364187955856,45.8151312476879
246860,-0.340157032012939,46.3173610968392
246960,-0.341814309358597,46.0941513985367
247070,-0.340985685586929,46.2057562476879
247180,-0.340985685586929,46.2057562476879
247290,-0.341814309358597,45.7035263985367
247400,-0.34077849984169,45.7035263985367
247510,-0.341192841529846,45.6477239739611
247620,-0.341399997472763,45.5361191248099
247730,-0.341814309358597,45.4803167002343
247840,-0.342228621244431,45.2013045773562
247950,-0.34160715341568,45.2013045773562
248060,-0.341814309358597,44.8106795773562
248170,-0.341814309358597,44.699074728205
248270,-0.340985685586929,44.3642521527806
248380,-0.340571343898773,44.5874698790538
248490,-0.341814309358597,44.5316674544782
248600,-0.340985685586929,44.5874698790538
248710,-0.34077849984169,44.6432803316002
248820,-0.34160715341568,44.6990827561758
248930,-0.342228621244431,44.6990827561758
249040,-0.342228621244431,44.3642682087221
249150,-0.340571343898773,44.6432883595709
249260,-0.340985685586929,44.5316754824489
249370,-0.342228621244431,43.8062359349953
249480,-0.341192841529846,43.9736432087221
249590,-0.341399997472763,43.7504254824489
249690,-0.34243580698967,43.638812605327
249800,-0.34160715341568,43.638812605327
249910,-0.34077849984169,43.5830101807514
250020,-0.34077849984169,43.8620303316002
250130,-0.340985685586929,43.5272077561758
250240,-0.34160715341568,43.4156029070245
250350,-0.341192841529846,43.248187605327
250460,-0.340157032012939,43.4714053316002
250570,-0.341814309358597,43.1923851807514
250680,-0.342021465301514,42.9133730578733
250790,-0.341192841529846,42.8575706332977
250900,-0.340157032012939,43.5272157841465
251000,-0.340571343898773,43.6946310858441
251110,-0.341399997472763,43.5272157841465
251220,-0.340985685586929,43.6946230578733
251330,-0.34077849984169,43.8062359349953
251440,-0.340985685586929,44.0852480578733
251550,-0.340571343898773,44.0852480578733
251660,-0.339949876070023,44.2526553316002
251770,-0.34077849984169,44.1968529070245
251880,-0.34077849984169,44.4758730578733
251990,-0.34077849984169,44.6990907841465
252100,-0.34160715341568,44.5874859349953
252210,-0.342228621244431,44.3084738121172
252320,-0.341399997472763,44.196868962966
252420,-0.34160715341568,44.0852641138148
252530,-0.341192841529846,44.0294616892392
252640,-0.34160715341568,43.8620544155124
252750,-0.341399997472763,43.917856840088
252860,-0.34160715341568,43.9736592646636
252970,-0.340571343898773,43.8620544155124
253080,-0.341399997472763,43.7504495663611
253190,-0.340985685586929,43.917856840088
253300,-0.341399997472763,43.6946391138148
253410,-0.341814309358597,43.7504415383904
253520,-0.341814309358597,43.6946391138148
253630,-0.340985685586929,43.6946391138148
253730,-0.340985685586929,43.8620463875416
253840,-0.34160715341568,43.9178488121172
253950,-0.34160715341568,43.7504415383904
254060,-0.33932837843895,44.2526794155124
254170,-0.34160715341568,43.917856840088
254280,-0.340985685586929,44.0294616892392
254390,-0.342021465301514,43.7504495663611
254500,-0.340157032012939,44.1410745663611
254610,-0.341399997472763,44.0852721417855
254720,-0.341814309358597,43.8620624434831
254830,-0.340985685586929,44.0294697172099
254940,-0.34077849984169,44.0852801697563
255050,-0.341192841529846,44.1410825943319
255150,-0.341814309358597,43.973675320605
255260,-0.34077849984169,44.1968930468782
255370,-0.341399997472763,44.085288197727
255480,-0.340364187955856,44.085288197727
255590,-0.340985685586929,43.973675320605
255700,-0.341814309358597,43.7504656223026
255810,-0.341814309358597,43.694663197727
255920,-0.342021465301514,43.4714534994246
256030,-0.341192841529846,43.6388607731514
256140,-0.34243580698967,43.4156430468782
256250,-0.341192841529846,43.2482277451807
256360,-0.34243580698967,43.0808124434831
256460,-0.34160715341568,43.0250100189075
256570,-0.341192841529846,42.8575947172099
256680,-0.340985685586929,42.8575947172099
256790,-0.340364187955856,42.9691995663611
256900,-0.340571343898773,42.9133971417855
257010,-0.339949876070023,43.136606840088
257120,-0.339949876070023,43.3040141138148
257230,-0.34160715341568,43.024993962966
257340,-0.340985685586929,43.024993962966
257450,-0.34077849984169,43.024993962966
257560,-0.34077849984169,42.9691915383904
257670,-0.341399997472763,42.9133891138148
257780,-0.340571343898773,42.8575866892392
257880,-0.341399997472763,43.1924092646636
257990,-0.340985685586929,43.1365988121172
258100,-0.342021465301514,42.9133891138148
258210,-0.340985685586929,42.6901713875416
258320,-0.340985685586929,42.8575786612684
258430,-0.340364187955856,42.8575786612684
258540,-0.340985685586929,43.0807883595709
258650,-0.341814309358597,42.9691835104197
258760,-0.341814309358597,42.5227560858441
258870,-0.340571343898773,42.8017762366928
258980,-0.341814309358597,42.4111512366928
259090,-0.340985685586929,42.2995383595709
259190,-0.34077849984169,42.1879335104197
259300,-0.340985685586929,42.2995383595709
259410,-0.341399997472763,42.1879335104197
259520,-0.340985685586929,42.2995383595709
259630,-0.342228621244431,41.9089133595709
259740,-0.34160715341568,41.9647157841465
259850,-0.342021465301514,41.4624859349953
259960,-0.34160715341568,41.2950786612684
260070,-0.340985685586929,41.1834657841465
260180,-0.341399997472763,41.1276633595709
260290,-0.34160715341568,41.1834657841465
260400,-0.342021465301514,41.0718609349953
260510,-0.340571343898773,41.2392762366928
260610,-0.341192841529846,41.4624859349953
260720,-0.340985685586929,41.2950706332977
260830,-0.34160715341568,40.9044456332977
260940,-0.34077849984169,41.1834657841465
261050,-0.341399997472763,41.0718609349953
261160,-0.34077849984169,41.1276713875416
261270,-0.341814309358597,41.1276713875416
261380,-0.341192841529846,41.0160585104197
261490,-0.34160715341568,40.9044536612684
261600,-0.342021465301514,40.7370463875416
261710,-0.341192841529846,40.9044536612684
261820,-0.341192841529846,41.1834657841465
261930,-0.341399997472763,41.2392682087221
262030,-0.339949876070023,41.7414980578733
262140,-0.342021465301514,41.6856956332977
262250,-0.339949876070023,41.9647157841465
262360,-0.341192841529846,41.7973004824489
262470,-0.340985685586929,42.0205101807514
262580,-0.341192841529846,41.9647077561758
262690,-0.341814309358597,41.685687605327
262800,-0.340571343898773,41.9647077561758
262910,-0.340985685586929,42.2995223036294
263020,-0.340364187955856,42.8017521527806
263130,-0.340157032012939,42.9133570019319
263240,-0.340985685586929,42.9133570019319
263340,-0.341192841529846,43.1923691248099
263450,-0.342021465301514,42.9691594265075
263560,-0.341399997472763,42.9691594265075
263670,-0.34160715341568,43.1923771527806
263780,-0.340985685586929,43.3597844265075
263890,-0.339742720127106,43.6387965493855
264000,-0.341814309358597,43.3597763985367
264110,-0.34077849984169,43.4155868510831
264220,-0.34160715341568,43.4155868510831
264330,-0.34243580698967,43.0807642756587
264440,-0.341399997472763,42.7459417002343
264550,-0.339742720127106,43.3039739739611
264660,-0.339121222496033,44.0852239739611
264760,-0.340571343898773,44.2526392756587
264870,-0.341399997472763,43.9178167002343
264980,-0.341192841529846,43.7504013985367
265090,-0.34077849984169,43.9178167002343
265200,-0.340985685586929,43.9178167002343
265310,-0.34243580698967,43.4713812476879
265420,-0.34077849984169,43.5271917002343
265530,-0.34077849984169,43.4713892756587
265640,-0.342228621244431,42.8575545773562
265750,-0.34077849984169,42.8575545773562
265860,-0.342021465301514,42.5227320019319
265970,-0.34160715341568,42.2995142756587
266070,-0.341814309358597,42.2437118510831
266180,-0.341192841529846,42.5227239739611
266290,-0.341399997472763,42.5227239739611
266400,-0.340985685586929,42.6901312476879
266510,-0.341192841529846,42.6901312476879
266620,-0.340985685586929,42.8575385214148
266730,-0.34160715341568,42.8017360968392
266840,-0.342021465301514,42.6901312476879
266950,-0.340364187955856,42.7459336722636
267060,-0.340985685586929,42.8575385214148
267170,-0.340157032012939,43.0807562476879
267280,-0.340985685586929,43.1923610968392
267390,-0.34160715341568,43.2481635214148
267490,-0.34243580698967,43.0807482197172
267600,-0.341192841529846,43.0249457951416
267710,-0.34160715341568,42.8575385214148
267820,-0.34077849984169,43.0807562476879
267930,-0.34160715341568,43.0807562476879
268040,-0.341192841529846,42.578518370566
268150,-0.341192841529846,42.6901232197172
268260,-0.342228621244431,42.3553086722636
268370,-0.340157032012939,42.8575385214148
268480,-0.341192841529846,42.578518370566
268590,-0.341192841529846,42.6343207951416
268700,-0.341192841529846,42.8017280688684
268800,-0.340571343898773,42.9133409459904
268910,-0.341192841529846,42.8017280688684
269020,-0.34077849984169,42.9133409459904
269130,-0.342642962932587,42.6901232197172
269240,-0.341399997472763,42.5227079180196
269350,-0.341399997472763,42.5227079180196
269460,-0.342021465301514,42.076280493444
269570,-0.34160715341568,41.9088732197172
269680,-0.341399997472763,42.0204780688684
269790,-0.341814309358597,42.0204780688684
269900,-0.342021465301514,42.0204780688684
270010,-0.341814309358597,41.8530707951416
270120,-0.342021465301514,41.9646836722636
270220,-0.340985685586929,42.0204860968392
270330,-0.340985685586929,42.4111110968392
270440,-0.342021465301514,42.2995062476879
270550,-0.341192841529846,42.2995062476879
270660,-0.341192841529846,42.2437038231123
270770,-0.341192841529846,42.0204860968392
270880,-0.341192841529846,41.8530707951416
270990,-0.341399997472763,41.4624457951416
271100,-0.34160715341568,41.016018370566
271210,-0.341192841529846,41.1276232197172
271320,-0.340985685586929,41.1276232197172
271430,-0.340364187955856,41.2392280688684
271530,-0.340364187955856,41.3508329180196
271640,-0.341399997472763,41.3508329180196
271750,-0.341814309358597,41.0160103425953
271860,-0.34160715341568,40.9602079180196
271970,-0.340571343898773,41.0718207951416
272080,-0.340985685586929,41.3508329180196
272190,-0.34077849984169,41.406643370566
272300,-0.342228621244431,41.0718288231123
272410,-0.34160715341568,40.7370062476879
272520,-0.34160715341568,40.5695989739611
272630,-0.342228621244431,40.4579941248099
272740,-0.341399997472763,40.5695989739611
272850,-0.340157032012939,40.6812038231123
272950,-0.340571343898773,41.0160263985367
273060,-0.341399997472763,40.9044215493855
273170,-0.340571343898773,40.9602239739611
273280,-0.340985685586929,40.9602239739611
273390,-0.34160715341568,40.9044215493855
273500,-0.341814309358597,40.6812118510831
273610,-0.341192841529846,40.9602239739611
273720,-0.34160715341568,40.9602239739611
273830,-0.341192841529846,41.1834336722636
273940,-0.340985685586929,41.3508409459904
274050,-0.341814309358597,41.1276312476879
274160,-0.340985685586929,41.2392360968392
274260,-0.340364187955856,41.5740586722636
274370,-0.34077849984169,41.9088812476879
274480,-0.342021465301514,41.5182562476879
274590,-0.341192841529846,41.5182562476879
274700,-0.340364187955856,41.6856715493855
274810,-0.341192841529846,41.7972763985367
274920,-0.341399997472763,41.6298610968392
275030,-0.340364187955856,41.9088812476879
275140,-0.341192841529846,41.797268370566
275250,-0.34243580698967,41.6298530688684
275360,-0.34077849984169,41.7414659459904
275470,-0.341399997472763,41.797268370566
275580,-0.34160715341568,41.9088732197172
275680,-0.34160715341568,41.797268370566
275790,-0.341814309358597,41.6298610968392
275900,-0.34077849984169,41.7972763985367
276010,-0.341399997472763,41.4066513985367
276120,-0.34160715341568,41.5182562476879
276230,-0.341814309358597,41.0160263985367
276340,-0.34077849984169,41.1276392756587
276450,-0.341814309358597,40.9044295773562
276560,-0.340985685586929,40.9602320019319
276670,-0.340364187955856,41.3508570019319
276780,-0.342228621244431,40.9044295773562
276890,-0.341192841529846,40.8486271527806
276990,-0.342228621244431,40.3463973036294
277100,-0.34160715341568,39.9557723036294
277210,-0.341192841529846,39.8999698790538
277320,-0.34160715341568,39.7883650299026
277430,-0.34160715341568,39.8999698790538
277540,-0.341192841529846,39.9557723036294
277650,-0.340985685586929,40.1231795773562
277760,-0.341814309358597,39.8999698790538
277870,-0.34160715341568,39.3977400299026
277980,-0.341814309358597,39.3977400299026
278090,-0.34077849984169,39.3977400299026
278200,-0.340364187955856,39.732562605327
278310,-0.341399997472763,40.0115827561758
278410,-0.340571343898773,40.2348004824489
278520,-0.341814309358597,39.6767682087221
278630,-0.341814309358597,38.9513206332977
278740,-0.34160715341568,38.6723004824489
278850,-0.34077849984169,38.8397157841465
278960,-0.339949876070023,39.1745383595709
279070,-0.341192841529846,39.0629254824489
279180,-0.34160715341568,38.8955182087221
279290,-0.341192841529846,39.2303407841465
279400,-0.341399997472763,39.0629254824489
279510,-0.340571343898773,39.1187279070245
279620,-0.340571343898773,39.5651553316002
279720,-0.341192841529846,39.4535424544782
279830,-0.341399997472763,39.620949728205
279940,-0.341192841529846,39.7325545773562
280050,-0.341192841529846,39.8999618510831
280160,-0.34160715341568,39.7883570019319
280270,-0.34243580698967,39.5093368510831
280380,-0.341192841529846,39.4535344265075
280490,-0.341399997472763,39.3977320019319
280600,-0.341399997472763,39.2861271527806
280710,-0.34077849984169,39.5093448790538
280820,-0.340571343898773,39.8999698790538
280930,-0.342228621244431,39.3977400299026
281040,-0.341814309358597,39.1745303316002
281140,-0.340985685586929,38.951312605327
281250,-0.341192841529846,38.8955101807514
281360,-0.341399997472763,38.951312605327
281470,-0.342850118875504,38.8397077561758
281580,-0.34160715341568,38.7281029070245
281690,-0.340364187955856,39.0629254824489
281800,-0.341814309358597,38.7839053316002
281910,-0.340985685586929,38.951312605327
282020,-0.341192841529846,38.951312605327
282130,-0.34077849984169,39.0629254824489
282240,-0.342228621244431,39.0629254824489
282350,-0.341399997472763,38.7281029070245
282450,-0.341814309358597,38.5606956332977
282560,-0.34243580698967,38.2258730578733
282670,-0.340364187955856,38.4490907841465
282780,-0.34077849984169,38.3932883595709
282890,-0.341192841529846,38.3932883595709
283000,-0.341399997472763,38.2258730578733
283110,-0.342021465301514,38.3932883595709
283220,-0.34243580698967,38.1142682087221
283330,-0.341192841529846,38.1700706332977
283440,-0.340571343898773,38.5606956332977
283550,-0.342021465301514,38.4490907841465
283660,-0.34077849984169,38.6165060858441
283770,-0.341814309358597,38.6165060858441
283870,-0.341814309358597,38.6723085104197
283980,-0.341192841529846,38.8397157841465
284090,-0.340571343898773,39.2303407841465
284200,-0.340571343898773,39.3419536612684
284310,-0.341814309358597,39.118743962966
284420,-0.340364187955856,39.5651713875416
284530,-0.34077849984169,39.6767842646636
284640,-0.342228621244431,39.3977721417855
284750,-0.34160715341568,39.2861672926343
284860,-0.342021465301514,39.0629575943319
284970,-0.341399997472763,39.0629575943319
285080,-0.34077849984169,39.286175320605
285180,-0.340157032012939,39.5651954714538
285290,-0.342228621244431,39.2303809240002
285400,-0.341399997472763,38.9513607731514
285510,-0.341814309358597,38.5607357731514
285620,-0.341192841529846,38.616538197727
285730,-0.34077849984169,38.8955583485758
285840,-0.341399997472763,38.9513607731514
285950,-0.340985685586929,38.8397478960294
286060,-0.34077849984169,38.8955583485758
286170,-0.340985685586929,38.8397478960294
286280,-0.340364187955856,39.3419777451807
286390,-0.340985685586929,39.5093850189075
286500,-0.341399997472763,39.5651874434831
286600,-0.341399997472763,39.7883971417855
286710,-0.340985685586929,39.9000019909367
286820,-0.34160715341568,39.5093769909367
286930,-0.340985685586929,39.3977641138148
287040,-0.340985685586929,39.509368962966
287150,-0.340364187955856,39.5651713875416
287260,-0.341399997472763,39.4535665383904
287370,-0.342021465301514,39.3419616892392
287480,-0.342021465301514,39.2861592646636
287590,-0.34243580698967,38.9513366892392
287700,-0.340364187955856,39.2861592646636
287810,-0.339949876070023,39.620981840088
287910,-0.34160715341568,39.4535745663611
288020,-0.340985685586929,39.6767842646636
288130,-0.340985685586929,39.6767842646636
288240,-0.341814309358597,39.2861592646636
288350,-0.34160715341568,39.0629415383904
288460,-0.341399997472763,39.2303488121172
288570,-0.340157032012939,39.509368962966
288680,-0.34077849984169,39.3977641138148
288790,-0.340985685586929,39.4535665383904
288900,-0.34160715341568,39.3977641138148
289010,-0.341814309358597,39.0071391138148
289120,-0.342021465301514,38.7839294155124
289230,-0.341814309358597,38.9513447172099
289330,-0.341399997472763,38.7839294155124
289440,-0.341814309358597,38.6723245663611
289550,-0.340985685586929,38.839731840088
289660,-0.340985685586929,39.0071391138148
289770,-0.340571343898773,39.3419616892392
289880,-0.340985685586929,39.2861512366928
289990,-0.340985685586929,39.3977560858441
290100,-0.342021465301514,39.2861512366928
290210,-0.342021465301514,39.2303488121172
290320,-0.34077849984169,39.2303488121172
290430,-0.34077849984169,39.509368962966
290540,-0.340985685586929,39.509368962966
290640,-0.339742720127106,39.6767762366928
290750,-0.341399997472763,39.8999859349953
290860,-0.340985685586929,39.9557883595709
290970,-0.341399997472763,40.1789980578733
291080,-0.341399997472763,40.2348004824489
291190,-0.339949876070023,40.5696230578733
291300,-0.341192841529846,40.6812279070245
291410,-0.340364187955856,41.0160504824489
291520,-0.340985685586929,41.0718529070245
291630,-0.340157032012939,41.2950706332977
291740,-0.341399997472763,41.4066754824489
291850,-0.342850118875504,41.0718529070245
291960,-0.34077849984169,41.3508730578733
292060,-0.340985685586929,41.295062605327
292170,-0.340571343898773,41.2392601807514
292280,-0.340985685586929,41.3508650299026
292390,-0.340985685586929,41.2392521527806
292500,-0.341814309358597,41.2392521527806
292610,-0.341192841529846,41.4066594265075
292720,-0.340364187955856,41.7414820019319
292830,-0.34077849984169,41.7414820019319
292940,-0.341192841529846,41.4066594265075
293050,-0.341814309358597,41.2392521527806
293160,-0.34243580698967,41.0160344265075
293270,-0.340985685586929,41.0718368510831
293370,-0.34160715341568,41.0160344265075
293480,-0.341192841529846,40.8486191248099
293590,-0.341814309358597,40.5137965493855
293700,-0.341192841529846,40.5137965493855
293810,-0.341192841529846,40.5695989739611
293920,-0.34160715341568,40.4579941248099
294030,-0.34160715341568,40.3463892756587
294140,-0.341399997472763,40.4021917002343
294250,-0.341192841529846,40.7370142756587
294360,-0.340571343898773,40.9044295773562
294470,-0.34160715341568,40.8486271527806
294580,-0.341192841529846,40.9044295773562
294690,-0.34160715341568,40.6812118510831
294790,-0.341192841529846,40.5137965493855
294900,-0.340571343898773,40.9602239739611
295010,-0.340985685586929,41.1834336722636
295120,-0.340571343898773,41.2950465493855
295230,-0.340985685586929,41.3508489739611
295340,-0.340985685586929,41.4624538231123
295450,-0.34160715341568,41.7972763985367
295560,-0.341814309358597,41.7414739739611
295670,-0.34077849984169,41.6298691248099
295780,-0.340364187955856,42.0204941248099
295890,-0.341192841529846,41.9646917002343
296000,-0.341399997472763,41.9088892756587
296100,-0.341399997472763,41.7414739739611
296210,-0.341192841529846,42.0204860968392
296320,-0.340985685586929,42.1320909459904
296430,-0.341814309358597,42.1320909459904
296540,-0.341814309358597,42.2995062476879
296650,-0.340364187955856,42.2995062476879
296760,-0.341814309358597,42.0204860968392
296870,-0.340571343898773,42.1879013985367
296980,-0.341814309358597,42.0762965493855
297090,-0.341814309358597,42.1320989739611
297200,-0.342642962932587,42.0762965493855
297310,-0.34243580698967,41.7414739739611
297420,-0.341399997472763,41.5182562476879
297520,-0.340571343898773,41.9088812476879
297630,-0.340571343898773,41.9646836722636
297740,-0.340571343898773,42.2995062476879
297850,-0.341192841529846,42.4669135214148
297960,-0.340571343898773,42.6343288231123
298070,-0.341399997472763,42.4111110968392
298180,-0.341192841529846,42.2436957951416
298290,-0.340571343898773,42.578518370566
298400,-0.339742720127106,42.7459256442928
298510,-0.340364187955856,42.857530493444
298620,-0.341814309358597,42.9691353425953
298730,-0.34160715341568,42.9691353425953
298830,-0.34077849984169,43.3039579180196
298940,-0.341192841529846,43.3597603425953
299050,-0.340157032012939,43.5271676163221
299160,-0.341192841529846,43.2481474654733
299270,-0.341814309358597,43.3597523146245
299380,-0.34243580698967,43.0807321637757
299490,-0.34160715341568,43.1365345883514
299600,-0.341399997472763,43.0807321637757
299710,-0.340364187955856,43.192337012927
299820,-0.340571343898773,43.4155547392001
299930,-0.342228621244431,43.0807401917465
300040,-0.341399997472763,42.9133248900489
300150,-0.342228621244431,42.5785103425953
300250,-0.340985685586929,42.4110950408977
300360,-0.340985685586929,42.4110950408977
300470,-0.341814309358597,42.2994901917465
300580,-0.34243580698967,42.0204700408977
300690,-0.34077849984169,42.076280493444
300800,-0.341399997472763,42.1320829180196
300910,-0.341192841529846,42.076280493444
301020,-0.341192841529846,42.0204780688684
301130,-0.340571343898773,41.9646756442928
301240,-0.340985685586929,42.076280493444
301350,-0.342021465301514,42.076280493444
301460,-0.341814309358597,42.1320829180196
301560,-0.341814309358597,42.2994982197172
301670,-0.34077849984169,42.187893370566
301780,-0.340571343898773,42.0204860968392
301890,-0.341192841529846,42.1320909459904
302000,-0.340571343898773,42.2437038231123
302110,-0.342021465301514,41.9646917002343
302220,-0.340985685586929,42.1879013985367
302330,-0.340985685586929,42.3553086722636
302440,-0.340985685586929,42.4669135214148
302550,-0.340985685586929,42.2436957951416
302660,-0.340571343898773,42.2994982197172
302770,-0.340364187955856,42.4669135214148
302880,-0.341399997472763,42.5227159459904
302980,-0.341399997472763,42.6343207951416
303090,-0.34160715341568,42.7459256442928
303200,-0.34160715341568,42.8017280688684
303310,-0.341192841529846,42.857530493444
303420,-0.339535564184189,43.4713651917465
303530,-0.340985685586929,43.4713651917465
303640,-0.341399997472763,43.3597603425953
303750,-0.341814309358597,43.0249377671709
303860,-0.341399997472763,42.9133329180196
303970,-0.341399997472763,42.8017280688684
304080,-0.34160715341568,42.9133329180196
304190,-0.341814309358597,42.9691353425953
304290,-0.339535564184189,43.3039498900489
304400,-0.341192841529846,43.192337012927
304510,-0.341814309358597,42.9691273146245
304620,-0.34077849984169,42.6901151917465
304730,-0.340571343898773,42.9133329180196
304840,-0.34160715341568,42.7459256442928
304950,-0.341814309358597,42.6343207951416
305060,-0.340985685586929,42.7459256442928
305170,-0.340364187955856,42.6343207951416
305280,-0.341399997472763,42.578518370566
305390,-0.341814309358597,42.187893370566
305500,-0.342228621244431,41.8530788231123
305610,-0.34077849984169,41.6856715493855
305710,-0.341192841529846,41.7414739739611
305820,-0.340571343898773,42.3553167002343
305930,-0.340985685586929,42.2995062476879
306040,-0.34160715341568,42.1320989739611
306150,-0.340985685586929,42.0204860968392
306260,-0.34077849984169,42.0762965493855
306370,-0.342021465301514,41.7972844265075
306480,-0.340985685586929,42.0204941248099
306590,-0.340157032012939,42.2995142756587
306700,-0.34160715341568,41.9646917002343
306810,-0.34160715341568,41.7414739739611
306920,-0.34160715341568,41.6298691248099
307020,-0.341192841529846,41.7972763985367
307130,-0.341399997472763,42.0762965493855
307240,-0.34160715341568,41.9088892756587
307350,-0.34160715341568,41.9088892756587
307460,-0.341192841529846,41.9088892756587
307570,-0.341399997472763,42.0204941248099
307680,-0.34077849984169,42.1321070019319
307790,-0.341192841529846,42.1321070019319
307900,-0.340985685586929,42.2995142756587
308010,-0.34243580698967,42.0762965493855
308120,-0.34077849984169,42.2437118510831
308230,-0.341814309358597,42.0763045773562
308340,-0.340985685586929,41.9646917002343
308440,-0.340985685586929,42.1320989739611
308550,-0.34077849984169,42.2437118510831
308660,-0.340364187955856,42.5785344265075
308770,-0.342021465301514,42.355324728205
308880,-0.342021465301514,41.964699728205
308990,-0.341192841529846,41.9088973036294
309100,-0.341399997472763,41.6856795773562
309210,-0.34243580698967,41.2950545773562
309320,-0.341192841529846,41.2392521527806
309430,-0.340571343898773,41.5182723036294
309540,-0.340571343898773,41.8530948790538
309650,-0.340571343898773,41.9088973036294
309750,-0.340571343898773,41.8530948790538
309860,-0.339949876070023,42.1879174544782
309970,-0.340571343898773,42.4111351807514
310080,-0.340364187955856,42.6901553316002
310190,-0.341399997472763,42.6343529070245
310300,-0.342850118875504,42.1321230578733
310410,-0.34077849984169,42.4111432087221
310520,-0.34160715341568,42.4669456332977
310630,-0.341399997472763,42.1879254824489
310740,-0.340985685586929,42.4111351807514
310850,-0.34160715341568,42.1321150299026
310960,-0.342021465301514,42.076312605327
311070,-0.34160715341568,42.1321150299026
311170,-0.341399997472763,42.466937605327
311280,-0.340985685586929,42.857562605327
311390,-0.34077849984169,43.0249779070245
311500,-0.340571343898773,43.0249779070245
311610,-0.341192841529846,42.857562605327
311720,-0.341814309358597,42.5227400299026
311830,-0.34160715341568,42.4111351807514
311940,-0.341399997472763,42.1879174544782
312050,-0.341192841529846,42.2437198790538
312160,-0.342228621244431,41.9647077561758
312270,-0.341814309358597,41.6298851807514
312380,-0.341814309358597,41.0718529070245
312480,-0.34160715341568,40.7370303316002
312590,-0.34243580698967,40.5696150299026
312700,-0.340985685586929,40.7370223036294
312810,-0.341192841529846,40.6254094265075
312920,-0.340364187955856,40.8486271527806
313030,-0.340985685586929,40.6254094265075
313140,-0.341192841529846,40.6254094265075
313250,-0.340571343898773,40.9602320019319
313360,-0.340571343898773,41.4624698790538
313470,-0.342021465301514,41.3508650299026
313580,-0.340571343898773,41.5740827561758
313690,-0.34077849984169,41.4624779070245
313800,-0.340571343898773,41.4624779070245
313900,-0.339742720127106,42.1321150299026
314010,-0.342021465301514,41.9647077561758
314120,-0.341399997472763,42.1879174544782
314230,-0.34160715341568,42.0205101807514
314340,-0.341814309358597,41.7973004824489
314450,-0.340571343898773,42.1321230578733
314560,-0.341192841529846,42.4669456332977
314670,-0.342228621244431,42.0763206332977
314780,-0.340985685586929,42.1879254824489
314890,-0.342228621244431,41.9089133595709
315000,-0.341192841529846,41.9089133595709
315110,-0.341192841529846,41.7414980578733
315210,-0.342021465301514,41.4624859349953
315320,-0.341814309358597,41.5182883595709
315430,-0.341814309358597,41.5182883595709
315540,-0.341192841529846,41.6856956332977
315650,-0.34077849984169,41.6856956332977
315760,-0.340571343898773,41.6856956332977
315870,-0.341192841529846,41.6856956332977
315980,-0.340985685586929,41.5740827561758
316090,-0.342021465301514,41.5740827561758
316200,-0.34160715341568,41.4066754824489
316310,-0.34160715341568,41.2392682087221
316420,-0.342850118875504,40.7370383595709
316530,-0.341192841529846,40.6812359349953
316630,-0.340571343898773,40.6812359349953
316740,-0.341399997472763,40.4022157841465
316850,-0.340157032012939,40.7370383595709
316960,-0.341192841529846,40.7928407841465
317070,-0.340571343898773,41.0718609349953
317180,-0.341399997472763,41.1276633595709
317290,-0.340571343898773,41.2950786612684
317400,-0.340985685586929,40.9044536612684
317510,-0.340571343898773,41.0160665383904
317620,-0.341192841529846,41.071868962966
317730,-0.341192841529846,41.2392762366928
317840,-0.34160715341568,41.1834738121172
317940,-0.342228621244431,40.9602641138148
318050,-0.341814309358597,40.9044616892392
318160,-0.341399997472763,41.0160665383904
318270,-0.341192841529846,40.5696391138148
318380,-0.340985685586929,40.6254415383904
318490,-0.341399997472763,40.7370463875416
318600,-0.34160715341568,40.5138286612684
318710,-0.340985685586929,40.4022157841465
318820,-0.341814309358597,40.3464133595709
318930,-0.342228621244431,40.2348085104197
319040,-0.341814309358597,40.0115988121172
319150,-0.34077849984169,39.899993962966
319260,-0.340985685586929,40.0115988121172
319360,-0.340571343898773,40.3464213875416
319470,-0.342228621244431,40.3464213875416
319580,-0.341814309358597,40.0674012366928
319690,-0.340985685586929,40.1232036612684
319800,-0.341399997472763,39.8999859349953
319910,-0.340985685586929,39.8999859349953
320020,-0.342228621244431,39.7325786612684
320130,-0.341192841529846,39.6767762366928
320240,-0.340985685586929,39.6209657841465
320350,-0.341192841529846,39.8441754824489
320460,-0.342021465301514,39.5651633595709
320570,-0.34160715341568,39.1745383595709
320670,-0.341814309358597,39.1187359349953
320780,-0.342642962932587,38.8397157841465
320890,-0.34077849984169,39.0629335104197
321000,-0.341192841529846,39.0629335104197
321110,-0.340985685586929,39.1745383595709
321220,-0.34160715341568,39.1745383595709
321330,-0.34160715341568,39.1745383595709
321440,-0.340985685586929,39.2303407841465
321550,-0.341399997472763,39.2303407841465
321660,-0.342228621244431,38.8397157841465
321770,-0.340364187955856,39.0629335104197
321880,-0.340364187955856,39.2303488121172
321990,-0.340157032012939,39.8441915383904
322090,-0.340985685586929,39.7883810858441
322200,-0.342228621244431,39.6767762366928
322310,-0.342021465301514,39.3977641138148
322420,-0.340985685586929,39.3977641138148
322530,-0.340364187955856,39.509368962966
322640,-0.340364187955856,39.509368962966
322750,-0.341192841529846,39.7325786612684
322860,-0.341192841529846,39.9557883595709
322970,-0.34077849984169,40.0674012366928
323080,-0.34160715341568,40.0115988121172
323190,-0.342228621244431,40.0674092646636
323300,-0.34160715341568,39.9558044155124
323400,-0.34160715341568,39.6767842646636
323510,-0.342021465301514,39.2861592646636
323620,-0.34077849984169,39.230356840088
323730,-0.340985685586929,39.118743962966
323840,-0.341399997472763,38.728118962966
323950,-0.340985685586929,38.6165060858441
324060,-0.34243580698967,38.0584657841465
324170,-0.342021465301514,37.8910585104197
324280,-0.341399997472763,38.2816835104197
324390,-0.342228621244431,37.8910585104197
324500,-0.340985685586929,38.0584657841465
324610,-0.340985685586929,38.1700706332977
324720,-0.34160715341568,38.0026633595709
324820,-0.34077849984169,38.2258810858441
324930,-0.342021465301514,38.2258810858441
325040,-0.341192841529846,38.3374859349953
325150,-0.342228621244431,38.1142762366928
325260,-0.341399997472763,38.0026713875416
325370,-0.340571343898773,38.0584738121172
325480,-0.340985685586929,37.9468609349953
325590,-0.340985685586929,38.0026633595709
325700,-0.341192841529846,38.1700706332977
325810,-0.34160715341568,38.1700706332977
325920,-0.340985685586929,38.2816754824489
326030,-0.342228621244431,38.0026633595709
326130,-0.342228621244431,38.0026633595709
326240,-0.340985685586929,38.2258730578733
326350,-0.340985685586929,38.4490827561758
326460,-0.34077849984169,38.6723004824489
326570,-0.340985685586929,39.0629254824489
326680,-0.34160715341568,38.8955182087221
326790,-0.341192841529846,38.8955182087221
326900,-0.342021465301514,38.4490907841465
327010,-0.340985685586929,38.4490907841465
327120,-0.340985685586929,38.5048932087221
327230,-0.341192841529846,38.3374779070245
327340,-0.340571343898773,38.3374779070245
327450,-0.340985685586929,38.6164900299026
327550,-0.340985685586929,38.5048771527806
327660,-0.341399997472763,38.3374618510831
327770,-0.34243580698967,37.8352239739611
327880,-0.341399997472763,37.3887965493855
327990,-0.341399997472763,37.5562038231123
328100,-0.342228621244431,37.3329941248099
328210,-0.341399997472763,37.3887965493855
328320,-0.34160715341568,37.4445989739611
328430,-0.340985685586929,37.3329860968392
328540,-0.341814309358597,37.1655788231123
328650,-0.341399997472763,37.3887885214148
328760,-0.340157032012939,37.6120062476879
328860,-0.341399997472763,37.8352159459904
328970,-0.341192841529846,37.8352159459904
329080,-0.34077849984169,37.9468288231123
329190,-0.341192841529846,38.1700385214148
329300,-0.341399997472763,38.281643370566
329410,-0.34160715341568,38.3374457951416
329520,-0.34077849984169,38.4490586722636
329630,-0.340157032012939,38.6164659459904
329740,-0.340985685586929,38.5048530688684
329850,-0.341399997472763,38.4490506442928
329960,-0.342021465301514,38.1700385214148
330070,-0.342021465301514,38.1700385214148
330180,-0.341399997472763,38.2258409459904
330280,-0.34305727481842,37.8352159459904
330390,-0.340985685586929,38.3374457951416
330500,-0.341399997472763,38.281643370566
330610,-0.341192841529846,38.1142280688684
330720,-0.34077849984169,38.281643370566
330830,-0.34077849984169,38.1142360968392
330940,-0.341399997472763,38.0584336722636
331050,-0.34160715341568,37.7794135214148
331160,-0.341814309358597,37.6678086722636
331270,-0.342228621244431,37.2213812476879
331380,-0.34077849984169,37.2771917002343
331490,-0.341399997472763,37.0539739739611
331590,-0.340571343898773,37.2213892756587
331700,-0.340571343898773,37.3888045773562
331810,-0.342228621244431,37.2213973036294
331920,-0.340364187955856,37.7236271527806
332030,-0.341399997472763,37.8352320019319
332140,-0.341399997472763,37.8352320019319
332250,-0.341399997472763,37.7794295773562
332360,-0.340571343898773,37.8910424544782
332470,-0.340571343898773,38.1142601807514
332580,-0.340571343898773,38.3932803316002
332690,-0.341192841529846,38.3374779070245
332800,-0.34160715341568,38.3932803316002
332910,-0.341399997472763,38.6164900299026
333010,-0.34077849984169,38.8955101807514
333120,-0.34160715341568,38.6722924544782
333230,-0.340985685586929,38.6722924544782
333340,-0.34160715341568,38.3932723036294
333450,-0.341399997472763,38.6164820019319
333560,-0.341399997472763,38.7280868510831
333670,-0.341192841529846,38.6722844265075
333780,-0.341399997472763,38.6722844265075
333890,-0.340985685586929,38.6722844265075
334000,-0.340571343898773,39.1187118510831
334110,-0.341192841529846,39.1187118510831
334220,-0.341192841529846,39.0629094265075
334320,-0.340985685586929,39.1187118510831
334430,-0.340571343898773,39.5093368510831
334540,-0.341192841529846,39.6209417002343
334650,-0.340985685586929,39.8441513985367
334760,-0.341192841529846,40.2347763985367
334870,-0.341399997472763,40.0673610968392
334980,-0.340985685586929,40.1231635214148
335090,-0.340571343898773,40.2347763985367
335200,-0.340364187955856,40.5695989739611
335310,-0.341399997472763,40.6254013985367
335420,-0.342228621244431,40.2905868510831
335530,-0.342021465301514,40.1231795773562
335640,-0.341192841529846,40.4021917002343
335740,-0.340364187955856,40.4021917002343
335850,-0.340571343898773,40.3463892756587
335960,-0.341814309358597,39.8999618510831
336070,-0.341192841529846,39.8441594265075
336180,-0.340985685586929,40.1789739739611
336290,-0.340364187955856,40.6254013985367
336400,-0.341399997472763,40.5137965493855
336510,-0.34077849984169,40.4021917002343
336620,-0.340364187955856,40.4021917002343
336730,-0.340364187955856,40.6254094265075
336840,-0.341192841529846,40.6254094265075
336950,-0.34160715341568,40.4021917002343
337050,-0.34077849984169,40.6254094265075
337160,-0.342642962932587,40.5137965493855
337270,-0.340985685586929,40.6812038231123
337380,-0.341192841529846,40.7928086722636
337490,-0.341814309358597,40.8486110968392
337600,-0.341399997472763,40.6811957951416
337710,-0.340985685586929,40.6811957951416
337820,-0.342021465301514,40.5137885214148
337930,-0.340985685586929,40.5137885214148
338040,-0.341399997472763,40.7928086722636
338150,-0.340571343898773,41.1834336722636
338260,-0.341399997472763,41.1834336722636
338370,-0.342021465301514,41.2392360968392
338470,-0.340985685586929,41.2392360968392
338580,-0.34160715341568,41.0718288231123
338690,-0.340985685586929,41.2392360968392
338800,-0.341192841529846,41.1276232197172
338910,-0.342228621244431,41.0718207951416
339020,-0.341814309358597,40.9044135214148
339130,-0.34160715341568,41.0718207951416
339240,-0.341399997472763,41.0718207951416
339350,-0.342021465301514,40.6811957951416
339460,-0.34160715341568,40.5137885214148
339570,-0.342021465301514,40.2347763985367
339680,-0.340364187955856,40.4579941248099
339780,-0.340985685586929,40.6254013985367
339890,-0.339742720127106,40.9602239739611
340000,-0.34243580698967,40.9044135214148
340110,-0.341814309358597,41.016018370566
340220,-0.342021465301514,40.7370062476879
340330,-0.34160715341568,40.5695989739611
340440,-0.340985685586929,40.5137885214148
340550,-0.340571343898773,40.6254013985367
340660,-0.341814309358597,40.5695989739611
340770,-0.34243580698967,40.2347763985367
340880,-0.341192841529846,40.4579860968392
340990,-0.340571343898773,40.5695989739611
341100,-0.340985685586929,40.5695989739611
341200,-0.340571343898773,40.7370142756587
341310,-0.341814309358597,40.4021917002343
341420,-0.341399997472763,40.2905868510831
341530,-0.341814309358597,40.0673771527806
341640,-0.341814309358597,39.9557723036294
341750,-0.341399997472763,40.2347924544782
341860,-0.341192841529846,40.2905948790538
341970,-0.34160715341568,40.2347924544782
342080,-0.341192841529846,40.5138045773562
342190,-0.34160715341568,40.4580021527806
342300,-0.341192841529846,40.5696070019319
342410,-0.339949876070023,40.8486271527806
342520,-0.340571343898773,41.183449728205
342620,-0.340157032012939,41.5182723036294
342730,-0.341192841529846,41.2392521527806
342840,-0.341192841529846,41.2950545773562
342950,-0.341399997472763,41.2392521527806
343060,-0.34243580698967,40.7928167002343
343170,-0.340364187955856,41.0160344265075
343280,-0.34160715341568,40.9602320019319
343390,-0.341192841529846,41.0718368510831
343500,-0.34160715341568,40.8486191248099
343610,-0.34160715341568,40.4579941248099
343720,-0.34160715341568,40.2905868510831
343830,-0.341399997472763,40.2905868510831
343930,-0.340985685586929,40.5695989739611
344040,-0.341814309358597,40.6254013985367
344150,-0.342021465301514,40.4579941248099
344260,-0.341814309358597,40.7928167002343
344370,-0.341399997472763,40.6812118510831
344480,-0.341399997472763,40.6812118510831
344590,-0.34243580698967,40.3463892756587
344700,-0.342228621244431,39.9557642756587
344810,-0.341399997472763,39.7883489739611
344920,-0.340364187955856,40.0673691248099
345030,-0.34160715341568,40.0673691248099
345140,-0.341814309358597,40.0673691248099
345250,-0.342021465301514,40.1231715493855
345350,-0.342021465301514,39.7883489739611
345460,-0.34160715341568,39.7325465493855
345570,-0.341399997472763,39.5093288231123
345680,-0.342021465301514,39.1187038231123
345790,-0.341192841529846,39.3977159459904
345900,-0.34160715341568,39.062893370566
346010,-0.341814309358597,38.9512885214148
346120,-0.34077849984169,39.1187038231123
346230,-0.34160715341568,39.0629013985367
346340,-0.341399997472763,38.8396836722636
346450,-0.341192841529846,38.672268370566
346560,-0.341192841529846,38.5048530688684
346660,-0.341399997472763,38.4490506442928
346770,-0.340364187955856,38.7838732197172
346880,-0.341399997472763,38.7838732197172
346990,-0.34077849984169,38.7838732197172
347100,-0.342021465301514,38.672268370566
347210,-0.340985685586929,38.672268370566
347320,-0.341814309358597,38.6164659459904
347430,-0.340157032012939,38.9512885214148
347540,-0.342021465301514,38.7838812476879
347650,-0.341192841529846,38.7838812476879
347760,-0.342228621244431,38.5606715493855
347870,-0.341399997472763,38.4490667002343
347980,-0.340985685586929,38.3374538231123
348080,-0.341399997472763,38.2816513985367
348190,-0.340985685586929,38.3374538231123
348300,-0.341814309358597,38.1142441248099
348410,-0.341399997472763,37.8910263985367
348520,-0.34160715341568,37.7794215493855
348630,-0.34160715341568,37.6120142756587
348740,-0.342021465301514,37.3888045773562
348850,-0.341399997472763,37.3888045773562
348960,-0.342021465301514,37.1097924544782
349070,-0.341399997472763,36.886574728205
349180,-0.34160715341568,36.5517521527806
349290,-0.341814309358597,36.4401473036294
349390,-0.341399997472763,36.6633570019319
349500,-0.34160715341568,36.7749618510831
349610,-0.341399997472763,36.7191594265075
349720,-0.34160715341568,36.3843368510831
349830,-0.342021465301514,35.9937118510831
349940,-0.34160715341568,36.0495142756587
350050,-0.341399997472763,35.9937118510831
350160,-0.34160715341568,35.8263045773562
350270,-0.342228621244431,35.324074728205
350380,-0.340364187955856,35.6030948790538
350490,-0.341814309358597,35.324074728205
350600,-0.342021465301514,34.8776473036294
350710,-0.342021465301514,34.4312198790538
350810,-0.340985685586929,34.4870223036294
350920,-0.340985685586929,34.6544295773562
351030,-0.341192841529846,34.5428167002343
351140,-0.340985685586929,34.9892441248099
351250,-0.341399997472763,34.8776392756587
351360,-0.341399997472763,34.8218368510831
351470,-0.341399997472763,34.9334417002343
351580,-0.34243580698967,34.6544215493855
351690,-0.340985685586929,34.6544215493855
351800,-0.342228621244431,34.5986191248099
351910,-0.34160715341568,34.4312118510831
352020,-0.341814309358597,34.3196070019319
352120,-0.341192841529846,34.1521917002343
352230,-0.34077849984169,34.3196070019319
352340,-0.342021465301514,34.3196070019319
352450,-0.340985685586929,34.3196070019319
352560,-0.340364187955856,34.6544295773562
352670,-0.341192841529846,34.5986271527806
352780,-0.341814309358597,34.4312198790538
352890,-0.340157032012939,34.9892521527806
353000,-0.340571343898773,35.324074728205
353110,-0.34305727481842,34.933449728205
353220,-0.342021465301514,34.7660424544782
353330,-0.342021465301514,34.7660424544782
353440,-0.34077849984169,34.9892601807514
353540,-0.341399997472763,35.1566674544782
353650,-0.342228621244431,34.654437605327
353760,-0.340364187955856,34.8218529070245
353870,-0.341399997472763,34.3754254824489
353980,-0.340985685586929,34.7660504824489
354090,-0.340571343898773,35.1008730578733
354200,-0.34160715341568,35.2124779070245
354310,-0.34160715341568,35.2124779070245
354420,-0.340985685586929,35.2124779070245
354530,-0.341192841529846,35.045062605327
354640,-0.342021465301514,34.9892601807514
354750,-0.34160715341568,35.2124779070245
354850,-0.341399997472763,35.1566754824489
354960,-0.341192841529846,34.9892601807514
355070,-0.341814309358597,34.7660504824489
355180,-0.342021465301514,34.3754254824489
355290,-0.34160715341568,34.4312279070245
355400,-0.341399997472763,34.4312279070245
355510,-0.34077849984169,34.7102480578733
355620,-0.340985685586929,34.9334577561758
355730,-0.341814309358597,34.8218529070245
355840,-0.341399997472763,34.7660504824489
355950,-0.34160715341568,34.7660504824489
356060,-0.340985685586929,34.8218529070245
356170,-0.342228621244431,34.6544456332977
356270,-0.341192841529846,34.6544456332977
356380,-0.341814309358597,34.1522157841465
356490,-0.34077849984169,34.0964133595709
356600,-0.340364187955856,34.0406109349953
356710,-0.341814309358597,33.8732036612684
356820,-0.340364187955856,34.0964213875416
356930,-0.34077849984169,34.2638366892392
357040,-0.341814309358597,34.4312519909367
357150,-0.341192841529846,34.2080342646636
357260,-0.341399997472763,34.2638366892392
357370,-0.339949876070023,34.5986592646636
357480,-0.341399997472763,34.6544616892392
357580,-0.340985685586929,34.821868962966
357690,-0.341399997472763,34.8776713875416
357800,-0.341192841529846,34.9334738121172
357910,-0.340364187955856,35.1008891138148
358020,-0.341192841529846,35.2682963875416
358130,-0.341192841529846,35.4915060858441
358240,-0.341399997472763,35.6031109349953
358350,-0.34160715341568,35.5473085104197
358460,-0.342021465301514,35.3799012366928
358570,-0.342228621244431,35.4357116892392
358680,-0.342021465301514,35.4915141138148
358790,-0.340985685586929,35.603118962966
358900,-0.341192841529846,35.3799012366928
359000,-0.341192841529846,35.4915060858441
359110,-0.342228621244431,35.3799012366928
359220,-0.341192841529846,35.6031109349953
359330,-0.341399997472763,35.7705182087221
359440,-0.341399997472763,35.8263206332977
359550,-0.342642962932587,35.4914980578733
359660,-0.341192841529846,35.7147077561758
359770,-0.34160715341568,35.6031029070245
359880,-0.341399997472763,35.6589053316002
359990,-0.340571343898773,35.9937279070245
360100,-0.34243580698967,35.5472924544782
360210,-0.34243580698967,35.324074728205
360310,-0.340985685586929,35.4356795773562
360420,-0.339742720127106,35.8263045773562
360530,-0.342021465301514,35.6030948790538
360640,-0.341814309358597,35.4914900299026
360750,-0.340985685586929,35.324074728205
360860,-0.339742720127106,35.7705021527806
360970,-0.341192841529846,35.6588892756587
361080,-0.341192841529846,35.8820989739611
361190,-0.341192841529846,35.8262965493855
361300,-0.340985685586929,36.0495062476879
361410,-0.342021465301514,35.5472763985367
361520,-0.340364187955856,35.9937038231123
361630,-0.340985685586929,36.0495062476879
361730,-0.34077849984169,36.4401312476879
361840,-0.341814309358597,36.3285263985367
361950,-0.34077849984169,36.3843368510831
362060,-0.340364187955856,36.6633570019319
362170,-0.34160715341568,36.495949728205
362280,-0.34160715341568,36.5517521527806
362390,-0.34077849984169,36.7191674544782
362500,-0.342021465301514,36.607562605327
362610,-0.34077849984169,36.8307803316002
362720,-0.341192841529846,37.0539900299026
362830,-0.340985685586929,37.1655948790538
362940,-0.34160715341568,37.277199728205
363040,-0.340985685586929,37.3888045773562
363150,-0.34160715341568,37.3888045773562
363260,-0.341399997472763,37.5004094265075
363370,-0.34160715341568,37.4446070019319
363480,-0.340985685586929,37.6120142756587
363590,-0.340157032012939,37.9468368510831
363700,-0.340985685586929,38.1142441248099
363810,-0.341192841529846,38.3374538231123
363920,-0.341192841529846,38.4490586722636
364030,-0.341814309358597,38.3374538231123
364140,-0.341399997472763,38.3932562476879
364250,-0.342228621244431,38.3932562476879
364360,-0.342642962932587,37.7794135214148
364460,-0.340157032012939,38.2258409459904
364570,-0.340571343898773,38.6164659459904
364680,-0.340985685586929,38.8954780688684
364790,-0.341814309358597,38.672268370566
364900,-0.343264430761337,38.0584336722636
365010,-0.34160715341568,37.9468288231123
365120,-0.341192841529846,37.8910263985367
365230,-0.341192841529846,37.9468288231123
365340,-0.341399997472763,37.9468288231123
365450,-0.34160715341568,37.8910263985367
365560,-0.34160715341568,38.1142441248099
365670,-0.341192841529846,38.0584417002343
365770,-0.341399997472763,38.2816513985367
365880,-0.34077849984169,38.5048691248099
365990,-0.34160715341568,38.5606715493855
366100,-0.34243580698967,38.2258489739611
366210,-0.340985685586929,38.1700385214148
366320,-0.342228621244431,38.1142360968392
366430,-0.34077849984169,38.1700465493855
366540,-0.34077849984169,38.0584417002343
366650,-0.341399997472763,38.0026392756587
366760,-0.342021465301514,37.9468368510831
366870,-0.342021465301514,37.4446070019319
366980,-0.340985685586929,37.3329941248099
367090,-0.340985685586929,37.8910263985367
367190,-0.340571343898773,38.2816513985367
367300,-0.34243580698967,38.1700385214148
367410,-0.340985685586929,38.1142280688684
367520,-0.341399997472763,38.1142280688684
367630,-0.34077849984169,38.5048530688684
367740,-0.341192841529846,38.2816353425953
367850,-0.341399997472763,38.2816353425953
367960,-0.342228621244431,37.9468207951416
368070,-0.342642962932587,37.388780493444
368180,-0.341399997472763,37.4445829180196
368290,-0.340985685586929,37.6119901917465
368400,-0.340364187955856,37.779405493444
368500,-0.34160715341568,37.6678006442928
368610,-0.34160715341568,37.779405493444
368720,-0.34160715341568,37.779405493444
368830,-0.340364187955856,38.0584256442928
368940,-0.34077849984169,38.1700385214148
369050,-0.340985685586929,38.3932482197172
369160,-0.34160715341568,38.5048530688684
369270,-0.34160715341568,38.5048530688684
369380,-0.341814309358597,38.3932482197172
369490,-0.341192841529846,38.2816353425953
369600,-0.341814309358597,38.0584256442928
369710,-0.341399997472763,38.170030493444
