time,raw,transformed
7290,-0.341814309358597,0
7400,-0.34243580698967,0
7510,-0.34160715341568,0
7620,-0.342228621244431,0
7730,-0.34077849984169,0
7840,-0.340985685586929,0
7950,-0.34160715341568,0
8050,-0.341192841529846,0
8160,-0.340985685586929,0
8270,-0.34160715341568,13.3333333333351
8380,-0.341814309358597,31.8181818181794
8490,-0.34077849984169,31.6659953197547
8600,-0.342228621244431,47.2519342222163
8710,-0.340985685586929,49.999119216924
8820,-0.342228621244431,46.6658446024622
8930,-0.342228621244431,43.7492293148095
9040,-0.34388592839241,69.4116293081859
9150,-0.342021465301514,68.8887716695861
9260,-0.342642962932587,67.3682999073244
9360,-0.343264430761337,64.9999040932977
9470,-0.342850118875504,63.4919721523475
9580,-0.341814309358597,63.6362764484534
9690,-0.342021465301514,63.4781858121469
9800,-0.34305727481842,61.9443805066425
9910,-0.343678742647171,59.7333026431893
10020,-0.34305727481842,58.4615163292228
10130,-0.340985685586929,59.7530366903524
10240,-0.343264430761337,58.33329908094
10350,-0.342228621244431,58.1608996974632
10460,-0.340985685586929,59.3332885768719
10570,-0.341814309358597,59.5698491604148
10680,-0.340985685586929,60.6249340641424
10780,-0.34160715341568,61.0100312597724
10890,-0.342021465301514,60.9803300995849
11000,-0.340985685586929,61.9046796990179
11110,-0.341814309358597,62.036957114785
11220,-0.343471586704254,60.7206585109678
11330,-0.341399997472763,61.2279995073421
11440,-0.341192841529846,61.8802582693712
11550,-0.342228621244431,61.6665947366406
11660,-0.34077849984169,62.6015558406249
11770,-0.34160715341568,62.8570697853701
11880,-0.341399997472763,63.2557336595054
11990,-0.341814309358597,63.3332548642137
12090,-0.342021465301514,63.2591867964181
12200,-0.340985685586929,63.9129559112714
12310,-0.340985685586929,64.5389050637918
12420,-0.341814309358597,64.5832334305194
12530,-0.343471586704254,63.5373288456824
12640,-0.341192841529846,63.999904093298
12750,-0.341399997472763,64.3136239419235
12860,-0.34243580698967,63.9742520014999
12970,-0.342228621244431,63.7734871893975
13080,-0.341814309358597,63.8270645871249
13190,-0.342850118875504,63.2726331097838
13300,-0.341814309358597,63.3332408518712
13410,-0.341814309358597,63.3917220065165
13510,-0.34160715341568,63.5631257912303
13620,-0.341814309358597,63.6157281789493
13730,-0.340985685586929,64.1110088106299
13840,-0.341192841529846,64.4807642600686
13950,-0.340985685586929,64.9461159023207
14060,-0.341814309358597,64.9734262319144
14170,-0.340985685586929,65.4165377920359
14280,-0.342021465301514,65.3332093923643
14390,-0.342228621244431,65.1513989009673
14500,-0.341399997472763,65.3730140871196
14610,-0.341399997472763,65.5881111795619
14720,-0.34243580698967,65.3138817862327
14820,-0.34077849984169,65.8093977607163
14930,-0.339949876070023,52.6317911100993
15040,-0.34243580698967,52.4124888108168
15150,-0.34077849984169,52.7759868631221
15260,-0.341814309358597,52.7740397129828
15370,-0.34077849984169,53.1230238051976
15480,-0.340364187955856,53.6013251145313
15590,-0.339121222496033,54.4773197303633
15700,-0.34077849984169,54.7910444341935
15810,-0.340364187955856,55.2300682174896
15920,-0.34160715341568,55.2633790659635
16030,-0.34160715341568,55.2958674243535
16140,-0.34077849984169,55.5843061951425
16240,-0.34243580698967,55.3584955851019
16350,-0.34160715341568,55.3886913054633
16460,-0.341399997472763,55.4800946364365
16570,-0.340985685586929,55.6917685490783
16680,-0.341399997472763,55.7775870075742
16790,-0.34243580698967,55.5624101729638
16900,-0.341399997472763,55.6477535916739
17010,-0.341814309358597,55.6142440823524
17120,-0.341399997472763,55.6971422181314
17230,-0.341399997472763,55.7782382205232
17340,-0.342021465301514,55.6878147924534
17450,-0.341399997472763,55.767284575918
17550,-0.341399997472763,55.8450813113109
17660,-0.341399997472763,55.9212572813814
17770,-0.342021465301514,55.8330882311617
17880,-0.342228621244431,55.6930140764288
17990,-0.34160715341568,55.7152557129848
18100,-0.34243580698967,55.5265234114727
18210,-0.341814309358597,55.4978637514848
18320,-0.34077849984169,55.7277655444033
18430,-0.341192841529846,55.8510009544657
18540,-0.342850118875504,55.5670100691002
18650,-0.342642962932587,55.3385527086229
18760,-0.34243580698967,55.164057169503
18870,-0.34160715341568,55.1895794024561
18970,-0.34160715341568,55.2146290014653
19080,-0.341814309358597,55.190934219367
19190,-0.341814309358597,55.1676702514878
19300,-0.34243580698967,55.002574353383
19410,-0.341814309358597,54.9814075980195
19520,-0.34305727481842,54.6811554116098
19630,-0.34160715341568,54.7093464702399
19740,-0.34160715341568,54.7370472495903
19850,-0.34305727481842,54.4466667606591
19960,-0.34243580698967,54.2961997418651
20070,-0.34243580698967,54.1482830115266
20180,-0.34305727481842,53.8701706377624
20280,-0.342228621244431,53.7721343913423
20390,-0.341399997472763,53.8497033173497
20500,-0.341399997472763,53.9260006216176
20610,-0.342850118875504,53.7015286562102
20720,-0.34243580698967,53.5655649215777
20830,-0.342228621244431,53.473886970743
20940,-0.34077849984169,53.6760612537468
21050,-0.34077849984169,53.875051689773
21160,-0.341814309358597,53.8653395496396
21270,-0.34077849984169,54.0709329002362
21380,-0.340985685586929,54.3587612249379
21490,-0.340571343898773,54.5643545755346
21600,-0.342021465301514,54.6054720625871
21700,-0.341814309358597,54.3998787119904
21810,-0.341814309358597,54.2354087637804
21920,-0.34160715341568,54.2354087637804
22030,-0.342021465301514,54.0709388155703
22140,-0.341814309358597,53.9064688673602
22250,-0.341399997472763,53.9475863544127
22360,-0.340985685586929,54.1120563026228
22470,-0.34077849984169,54.1120563026228
22580,-0.34305727481842,53.9475804390787
22690,-0.341192841529846,53.9064629520262
22800,-0.34243580698967,53.8653395496396
22910,-0.341192841529846,54.0709269849022
23010,-0.34160715341568,54.523231173148
23120,-0.341399997472763,54.6465836343055
23230,-0.342021465301514,54.7699420107971
23340,-0.341814309358597,55.0577703354988
23450,-0.342642962932587,55.0988878225513
23560,-0.34160715341568,55.1400053096039
23670,-0.341192841529846,55.3044752578139
23780,-0.34077849984169,55.7567794460597
23890,-0.343471586704254,55.7978969331122
24000,-0.341814309358597,56.0446077707614
24110,-0.342642962932587,55.7156619590072
24220,-0.341192841529846,56.1268427448664
24330,-0.342228621244431,56.1268427448664
24430,-0.34160715341568,56.0034902837089
24540,-0.340364187955856,56.2913186084106
24650,-0.342228621244431,56.0446136860955
24760,-0.342642962932587,55.8390203354988
24870,-0.34243580698967,55.7567794460597
24980,-0.341814309358597,55.5923094978497
25090,-0.339742720127106,56.0034902837089
25200,-0.341192841529846,56.4557885566206
25310,-0.34160715341568,56.4146710695681
25420,-0.34077849984169,56.4969119590072
25530,-0.342642962932587,56.4146710695681
25640,-0.342228621244431,56.1268427448664
25740,-0.341399997472763,56.167960231919
25850,-0.341814309358597,56.0857252578139
25960,-0.341192841529846,56.2090777189715
26070,-0.342850118875504,56.0446018554273
26180,-0.341192841529846,56.0034843683748
26290,-0.341399997472763,55.9212493942698
26400,-0.342021465301514,55.8801319072173
26510,-0.341192841529846,56.332430180129
26620,-0.342228621244431,56.1268427448664
26730,-0.34243580698967,55.9212493942698
26840,-0.342642962932587,55.8801319072173
26950,-0.342228621244431,55.8801319072173
27060,-0.34077849984169,56.0857252578139
27160,-0.34243580698967,56.167960231919
27270,-0.341192841529846,56.2913126930765
27380,-0.342642962932587,56.1268368295324
27490,-0.341192841529846,56.2090718036374
27600,-0.341192841529846,56.332424264795
27710,-0.342021465301514,56.1268368295324
27820,-0.342228621244431,55.9212493942698
27930,-0.341399997472763,55.8390144201648
28040,-0.342850118875504,55.6334210695681
28150,-0.342021465301514,55.4278336343055
28260,-0.340985685586929,55.6334210695681
28370,-0.34243580698967,55.5922976671815
28470,-0.34160715341568,55.551180180129
28580,-0.342642962932587,55.3044693424799
28690,-0.341399997472763,55.5100626930765
28800,-0.340985685586929,55.4689392906899
28910,-0.342850118875504,54.8932826412866
29020,-0.341814309358597,55.0166410177782
29130,-0.342642962932587,54.6465718036374
29240,-0.34305727481842,54.3998609659882
29350,-0.34160715341568,54.2353851024441
29460,-0.340985685586929,54.1120267259525
29570,-0.342021465301514,53.5363700765492
29680,-0.341814309358597,53.3307767259525
29790,-0.341399997472763,53.1251833753559
29890,-0.342021465301514,53.0429484012508
30000,-0.34160715341568,53.0429484012508
30110,-0.343264430761337,52.5495267259525
30220,-0.342642962932587,52.5084092389
30330,-0.342642962932587,52.3028158883033
30440,-0.342021465301514,52.1794634271458
30550,-0.342021465301514,51.9738759918832
30660,-0.34160715341568,51.9327585048307
30770,-0.341399997472763,52.1383518554273
30880,-0.34077849984169,52.261710231919
30990,-0.34243580698967,52.1383518554273
31100,-0.342642962932587,51.8916410177782
31200,-0.34077849984169,52.0149993942698
31310,-0.341192841529846,52.1794693424799
31420,-0.342021465301514,52.0561168813223
31530,-0.342850118875504,51.7682885566206
31640,-0.34077849984169,51.8916469331122
31750,-0.341814309358597,51.9327644201648
31860,-0.340571343898773,52.261710231919
31970,-0.342021465301514,52.1794752578139
32080,-0.340985685586929,52.4673035825156
32190,-0.342021465301514,52.4261860954631
32300,-0.342642962932587,52.0561168813223
32410,-0.342021465301514,51.8916469331122
32520,-0.341192841529846,52.2205927448664
32620,-0.340985685586929,52.5495385566206
32730,-0.341192841529846,52.7962493942698
32840,-0.34243580698967,52.6317735307257
32950,-0.342228621244431,52.5084210695681
33060,-0.340364187955856,52.7962493942698
33170,-0.34243580698967,52.6728910177782
33280,-0.341399997472763,52.8784843683748
33390,-0.341192841529846,53.0018368295324
33500,-0.341814309358597,53.2485476671815
33610,-0.34243580698967,53.0840718036374
33720,-0.342021465301514,53.0018368295324
33830,-0.341192841529846,53.3719001283391
33930,-0.341399997472763,53.5774934789357
34040,-0.341399997472763,53.7830868295324
34150,-0.341192841529846,54.1531501283391
34260,-0.341814309358597,54.2353851024441
34370,-0.341192841529846,54.2765025894966
34480,-0.342642962932587,54.0297917518475
34590,-0.341814309358597,54.2353851024441
34700,-0.34160715341568,54.3998609659882
34810,-0.342228621244431,54.3998609659882
34920,-0.340364187955856,54.4820959400933
35030,-0.342021465301514,54.2353851024441
35140,-0.342021465301514,54.1942676153916
35250,-0.342021465301514,53.9475567777424
35350,-0.340985685586929,53.9475567777424
35460,-0.340985685586929,53.8653158883033
35570,-0.341192841529846,54.0297858365134
35680,-0.34243580698967,53.9064274600218
35790,-0.341399997472763,53.9886624341268
35900,-0.341399997472763,54.0297799211794
36010,-0.342642962932587,53.9064215446877
36120,-0.34305727481842,53.6597107070386
36230,-0.342228621244431,53.4952407588285
36340,-0.340364187955856,53.6185991353201
36450,-0.340985685586929,53.5774757329336
36560,-0.342021465301514,53.7830690835302
36660,-0.342850118875504,53.454123271776
36770,-0.342228621244431,53.4952466741626
36880,-0.34077849984169,53.5774875636017
36990,-0.340364187955856,53.8241984012508
37100,-0.340985685586929,53.9064333753559
37210,-0.340985685586929,54.1120208106185
37320,-0.341814309358597,54.1120208106185
37430,-0.341399997472763,54.3587316482676
37540,-0.339949876070023,54.6876774600218
37650,-0.342021465301514,54.5232075118117
37760,-0.341192841529846,54.4409666223726
37870,-0.342228621244431,54.6876774600218
37980,-0.34077849984169,54.8932708106185
38080,-0.342228621244431,54.9755117000575
38190,-0.340571343898773,55.0988700765492
38300,-0.342021465301514,55.1399875636017
38410,-0.341192841529846,55.2222225377067
38520,-0.342228621244431,54.8521592389
38630,-0.341192841529846,55.0577466741626
38740,-0.341814309358597,55.2222225377067
38850,-0.341399997472763,55.4278158883033
38960,-0.342021465301514,55.3866984012508
39070,-0.34160715341568,55.0166351024441
39180,-0.341192841529846,55.0166351024441
39290,-0.343264430761337,54.6876892906899
39390,-0.342228621244431,54.3998609659882
39500,-0.34305727481842,54.3176259918832
39610,-0.341814309358597,54.3998609659882
39720,-0.34160715341568,54.3587434789357
39830,-0.341399997472763,54.4409784530408
39940,-0.340571343898773,54.5643368295324
40050,-0.340985685586929,54.9344001283391
40160,-0.34160715341568,54.8521651542341
40270,-0.34077849984169,54.9755235307257
40380,-0.339742720127106,55.4278218036374
40490,-0.342850118875504,55.0988759918832
40600,-0.34077849984169,55.3867043165849
40710,-0.342021465301514,55.468945206024
40810,-0.34077849984169,55.8390144201648
40920,-0.342021465301514,55.8801319072173
41030,-0.342021465301514,55.6334210695681
41140,-0.34077849984169,55.9623727966564
41250,-0.34160715341568,55.8801378225513
41360,-0.34160715341568,56.085731173148
41470,-0.34243580698967,55.8390203354988
41580,-0.340571343898773,55.9623787119904
41690,-0.342642962932587,55.8390203354988
41800,-0.341192841529846,56.0446077707614
41910,-0.34388592839241,55.5511860954631
42020,-0.340985685586929,55.9212493942698
42120,-0.342021465301514,55.9212493942698
42230,-0.341814309358597,55.7567794460597
42340,-0.341192841529846,56.0034902837089
42450,-0.341399997472763,56.0446077707614
42560,-0.342228621244431,56.1268486602005
42670,-0.34160715341568,56.085731173148
42780,-0.34160715341568,55.9623787119904
42890,-0.342228621244431,56.085737088482
43000,-0.34160715341568,56.1268545755346
43110,-0.342850118875504,56.085737088482
43220,-0.340985685586929,56.4969178743413
43330,-0.34243580698967,56.3324420107971
43440,-0.341814309358597,56.1679720625871
43540,-0.341192841529846,56.3324420107971
43650,-0.341192841529846,56.4557944719547
43760,-0.340364187955856,56.6613878225513
43870,-0.342228621244431,56.6202703354988
43980,-0.341192841529846,56.7025053096039
44090,-0.341814309358597,56.9903336343055
44200,-0.34243580698967,57.031451121358
44310,-0.340985685586929,57.3603969331122
44420,-0.341399997472763,57.4837493942698
44530,-0.341399997472763,57.6071018554273
44640,-0.342021465301514,57.5248668813223
44750,-0.342021465301514,57.4015144201648
44850,-0.343264430761337,56.9080927448664
44960,-0.342228621244431,56.949216147253
45070,-0.34077849984169,57.3192853613938
45180,-0.341814309358597,57.1136920107971
45290,-0.342642962932587,56.8258636860955
45400,-0.341814309358597,56.866981173148
45510,-0.34160715341568,57.1136920107971
45620,-0.341399997472763,56.9903336343055
45730,-0.342021465301514,56.949216147253
45840,-0.341192841529846,56.8258577707614
45950,-0.342228621244431,56.7847402837089
46060,-0.342021465301514,56.5791528484463
46170,-0.341399997472763,56.7025053096039
46270,-0.341192841529846,56.9903336343055
46380,-0.34160715341568,57.0725686084106
46490,-0.34243580698967,56.8258577707614
46600,-0.341399997472763,56.7436227966564
46710,-0.341814309358597,56.6202703354988
46820,-0.341814309358597,56.7436287119904
46930,-0.340571343898773,57.0725745237446
47040,-0.341192841529846,56.9080986602005
47150,-0.341399997472763,57.1136920107971
47260,-0.341192841529846,57.1548094978497
47370,-0.341814309358597,57.0314570366921
47480,-0.342021465301514,56.9903395496396
47580,-0.34243580698967,56.9903395496396
47690,-0.342642962932587,56.866981173148
47800,-0.343264430761337,56.4558003872888
47910,-0.34077849984169,56.5791587637804
48020,-0.342021465301514,56.4558063026228
48130,-0.34160715341568,56.3735713285178
48240,-0.342021465301514,56.3324538414653
48350,-0.342228621244431,56.1268664062027
48460,-0.34160715341568,56.3324597567993
48570,-0.34160715341568,56.3735772438518
48680,-0.341814309358597,56.3324597567993
48790,-0.342228621244431,56.3324597567993
48900,-0.341192841529846,56.1679838932552
49000,-0.341399997472763,56.2913363544127
49110,-0.341814309358597,56.3324538414653
49220,-0.341399997472763,56.4558063026228
49330,-0.34160715341568,56.3324538414653
49440,-0.341814309358597,56.1679838932552
49550,-0.34077849984169,56.2502247826943
49660,-0.34160715341568,56.4147006462384
49770,-0.342021465301514,56.2913481850809
49880,-0.340985685586929,56.3735831591859
49990,-0.341192841529846,56.6614114838876
50100,-0.341814309358597,56.9081223215367
50210,-0.342228621244431,56.9081223215367
50310,-0.340571343898773,56.8670048344842
50420,-0.341814309358597,56.7025348862742
50530,-0.341399997472763,56.8258873474317
50640,-0.342228621244431,56.9492457239233
50750,-0.341399997472763,57.1137156721334
50860,-0.341192841529846,57.0314747826943
50970,-0.342642962932587,56.5791705944485
51080,-0.342228621244431,56.3324656721334
51190,-0.342850118875504,55.9624023733267
51300,-0.34160715341568,56.0035198603792
51410,-0.341192841529846,56.0446373474317
51520,-0.340985685586929,55.8390439968351
51630,-0.341814309358597,55.8801614838876
51730,-0.342021465301514,55.7156915356775
51840,-0.342642962932587,55.6334506462384
51950,-0.342021465301514,55.3867398085893
52060,-0.342850118875504,55.2633814320976
52170,-0.34243580698967,54.8933122179569
52280,-0.34160715341568,54.9755471920619
52390,-0.341192841529846,54.9755471920619
52500,-0.34077849984169,55.2633755167636
52610,-0.341814309358597,55.140023055606
52720,-0.340985685586929,55.3044930038161
52830,-0.342642962932587,55.0577821661669
52940,-0.342021465301514,55.0577821661669
53040,-0.341399997472763,55.0988996532195
53150,-0.342021465301514,54.9344297050094
53260,-0.340571343898773,55.4689688673602
53370,-0.34243580698967,55.4278454649736
53480,-0.342642962932587,55.5100804390787
53590,-0.341399997472763,55.5923154131837
53700,-0.342021465301514,55.5100804390787
53810,-0.342021465301514,55.3867279779211
53920,-0.342228621244431,55.0577821661669
54030,-0.342228621244431,54.8110772438518
54140,-0.342228621244431,54.6877247826943
54250,-0.34160715341568,54.5232489191502
54360,-0.342228621244431,54.0298331591859
54460,-0.341814309358597,54.2354265097825
54570,-0.34160715341568,54.0709506462384
54680,-0.340364187955856,54.3998964579926
54790,-0.341399997472763,54.276538081501
54900,-0.34160715341568,54.358773055606
55010,-0.34160715341568,54.4410080297111
55120,-0.342021465301514,54.1942971920619
55230,-0.342228621244431,54.0709447309044
55340,-0.342642962932587,53.8653513803077
55450,-0.342021465301514,53.9475922697468
55560,-0.341399997472763,53.7831164062027
55670,-0.34243580698967,53.8242338932552
55770,-0.342228621244431,53.6186464579926
55880,-0.341399997472763,54.1120681332909
55990,-0.34160715341568,53.9887156721334
56100,-0.342228621244431,53.9475981850809
56210,-0.341399997472763,54.0298331591859
56320,-0.341814309358597,53.9064806980283
56430,-0.34077849984169,54.02983907452
56540,-0.342021465301514,54.0709565615725
56650,-0.342228621244431,53.9476041004149
56760,-0.34160715341568,53.9476041004149
56870,-0.342021465301514,53.9887215874674
56980,-0.341192841529846,54.0709565615725
57090,-0.34160715341568,54.3176673992216
57190,-0.340571343898773,54.3999082886607
57300,-0.34077849984169,54.728860015749
57410,-0.342021465301514,54.6877425286965
57520,-0.34077849984169,54.7699834181356
57630,-0.342228621244431,54.564395982873
57740,-0.342228621244431,54.1943326840663
57850,-0.34160715341568,54.3176851452238
57960,-0.341399997472763,54.2765676581713
58070,-0.34243580698967,54.1532092816797
58180,-0.341814309358597,54.2765676581713
58290,-0.341814309358597,54.1120977099612
58400,-0.34160715341568,54.0709802229087
58500,-0.341814309358597,53.9887452488037
58610,-0.34243580698967,53.9065043593646
58720,-0.341814309358597,53.9476218464171
58830,-0.341399997472763,54.3176851452238
58940,-0.34160715341568,54.4410376063814
59050,-0.343264430761337,53.9476159310831
59160,-0.342021465301514,53.9064984440305
59270,-0.341192841529846,54.1943267687322
59380,-0.34160715341568,54.2354442557847
59490,-0.341814309358597,54.1943267687322
59600,-0.342021465301514,54.0709743075747
59710,-0.342642962932587,53.9476159310831
59820,-0.341192841529846,53.9476159310831
59920,-0.340571343898773,54.2765617428372
60030,-0.341814309358597,54.3176792298898
60140,-0.34160715341568,54.2765617428372
60250,-0.341399997472763,54.2354442557847
60360,-0.34077849984169,54.3999201193288
60470,-0.342021465301514,54.4821610087679
60580,-0.341814309358597,54.3999260346629
60690,-0.342642962932587,54.2354501711188
60800,-0.34077849984169,54.4410435217154
60910,-0.341814309358597,54.1943326840663
61020,-0.34243580698967,53.9476218464171
61130,-0.341192841529846,53.9887393334696
61230,-0.34160715341568,53.9065043593646
61340,-0.341814309358597,53.9065043593646
61450,-0.34243580698967,53.8242634699255
61560,-0.34160715341568,53.9887393334696
61670,-0.34160715341568,54.1943326840663
61780,-0.342021465301514,54.4410435217154
61890,-0.341399997472763,54.3176851452238
62000,-0.34243580698967,54.2354442557847
62110,-0.342228621244431,54.1120917946272
62220,-0.342228621244431,54.0709743075747
62330,-0.34160715341568,54.1943267687322
62440,-0.34077849984169,54.3588026322763
62550,-0.340364187955856,54.6055134699255
62650,-0.341399997472763,54.6877484440305
62760,-0.341399997472763,54.8522183922406
62870,-0.341814309358597,54.7288659310831
62980,-0.341399997472763,54.7288659310831
63090,-0.340985685586929,54.8933358792931
63200,-0.341192841529846,54.9344533663456
63310,-0.342021465301514,54.8522183922406
63420,-0.340985685586929,55.0166883404507
63530,-0.342228621244431,54.728860015749
63640,-0.34160715341568,54.728860015749
63750,-0.340985685586929,54.9344474510116
63860,-0.343471586704254,54.4410316910473
63960,-0.340571343898773,54.5643900675389
64070,-0.34243580698967,54.4410316910473
64180,-0.341399997472763,54.6055016392574
64290,-0.342642962932587,54.1943149380641
64400,-0.34305727481842,53.9476041004149
64510,-0.34388592839241,53.4541824251166
64620,-0.34243580698967,53.41305902273
64730,-0.34305727481842,53.0841132109758
64840,-0.342642962932587,52.7962848862742
64950,-0.342642962932587,52.7962848862742
65060,-0.34160715341568,52.9196373474317
65170,-0.342850118875504,52.9196373474317
65280,-0.341399997472763,52.9607548344842
65380,-0.341814309358597,52.8374023733267
65490,-0.342021465301514,52.6318149380641
65600,-0.341814309358597,52.6318149380641
65710,-0.340985685586929,52.8374023733267
65820,-0.34160715341568,53.0429957239233
65930,-0.34243580698967,52.9607548344842
66040,-0.34160715341568,53.2074656721334
66150,-0.341814309358597,53.330824048625
66260,-0.341399997472763,53.3719415356775
66370,-0.341814309358597,53.24858907452
66480,-0.340571343898773,53.2897065615725
66590,-0.342021465301514,53.24858907452
66690,-0.341399997472763,53.1663541004149
66800,-0.342021465301514,53.2897124769065
66910,-0.341814309358597,53.330829963959
67020,-0.34160715341568,53.2897124769065
67130,-0.342850118875504,53.1252366133624
67240,-0.34160715341568,52.9196432627658
67350,-0.341814309358597,53.0430016392574
67460,-0.340157032012939,53.5364233145557
67570,-0.342850118875504,53.248594989854
67680,-0.34160715341568,53.330829963959
67790,-0.34160715341568,53.4130649380641
67900,-0.34305727481842,53.24858907452
68010,-0.34243580698967,53.2074656721334
68110,-0.340985685586929,53.4541705944485
68220,-0.341192841529846,53.5364055685535
68330,-0.34160715341568,53.6597580297111
68440,-0.341814309358597,53.6597580297111
68550,-0.341814309358597,53.6186405426585
68660,-0.340985685586929,53.4952821661669
68770,-0.342642962932587,53.2485713285178
68880,-0.34077849984169,53.4130471920619
68990,-0.34243580698967,53.2485713285178
69100,-0.34160715341568,53.3308063026228
69210,-0.341814309358597,53.4130412767278
69320,-0.342228621244431,53.4952821661669
69430,-0.341814309358597,53.5363996532195
69530,-0.342228621244431,53.3719297050094
69640,-0.341192841529846,53.6186405426585
69750,-0.341192841529846,53.8242279779211
69860,-0.341192841529846,53.8653454649736
69970,-0.34160715341568,53.8653454649736
70080,-0.341814309358597,53.9475804390787
70190,-0.34160715341568,53.9064629520262
70300,-0.341814309358597,53.9064629520262
70410,-0.34243580698967,53.5775112249379
70520,-0.341399997472763,53.7008636860955
70630,-0.342228621244431,53.7008636860955
70740,-0.342642962932587,53.4952703354988
70840,-0.342642962932587,53.3719119590072
70950,-0.341399997472763,53.3307944719547
71060,-0.341399997472763,53.3719119590072
71170,-0.343264430761337,52.8373727966564
71280,-0.340571343898773,52.8784902837089
71390,-0.34160715341568,52.9607252578139
71500,-0.342850118875504,52.5495385566206
71610,-0.340985685586929,52.7962434789357
71720,-0.342228621244431,52.7962434789357
71830,-0.341192841529846,52.8784784530408
71940,-0.341814309358597,52.7962434789357
72050,-0.342642962932587,52.7551259918832
72160,-0.34077849984169,52.9607193424799
72260,-0.34243580698967,52.8373609659882
72370,-0.341814309358597,52.7962434789357
72480,-0.342021465301514,52.7551259918832
72590,-0.342228621244431,52.7962493942698
72700,-0.342021465301514,52.7551319072173
72810,-0.341814309358597,52.6728969331122
72920,-0.342021465301514,52.5906619590072
73030,-0.342021465301514,52.8373727966564
73140,-0.341399997472763,52.9607252578139
73250,-0.342021465301514,52.7962553096039
73360,-0.342642962932587,52.5906619590072
73470,-0.34243580698967,52.4673035825156
73570,-0.342850118875504,52.3028277189715
73680,-0.341814309358597,52.4673035825156
73790,-0.34160715341568,52.3850686084106
73900,-0.342021465301514,52.0972402837089
74010,-0.341814309358597,52.0972402837089
74120,-0.34160715341568,52.0972402837089
74230,-0.341814309358597,52.0150053096039
74340,-0.340571343898773,52.0561227966564
74450,-0.342021465301514,52.0561227966564
74560,-0.340364187955856,52.343951121358
74670,-0.342228621244431,52.4261920107971
74780,-0.342228621244431,52.1383636860955
74890,-0.340571343898773,52.3850745237446
74990,-0.342642962932587,52.3439570366921
75100,-0.342228621244431,52.1383696014295
75210,-0.34243580698967,51.9738937378854
75320,-0.341399997472763,52.0561287119904
75430,-0.342642962932587,52.0150112249379
75540,-0.34160715341568,52.0150112249379
75650,-0.341399997472763,52.0561287119904
75760,-0.342228621244431,52.0150112249379
75870,-0.341399997472763,52.0150112249379
75980,-0.342642962932587,51.9738937378854
76090,-0.342228621244431,51.9738937378854
76200,-0.342850118875504,51.8505353613938
76300,-0.342021465301514,51.7683003872888
76410,-0.34243580698967,51.4393486602005
76520,-0.341814309358597,51.1515203354988
76630,-0.342228621244431,50.9870503872888
76740,-0.340157032012939,51.2337612249379
76850,-0.342642962932587,51.0692853613938
76960,-0.342642962932587,50.8225745237446
77070,-0.34160715341568,50.6992220625871
77180,-0.342021465301514,50.534752114377
77290,-0.34160715341568,50.616987088482
77400,-0.34243580698967,50.3291587637804
77510,-0.341814309358597,50.4113937378854
77620,-0.341192841529846,50.4936287119904
77720,-0.341399997472763,50.4113937378854
77830,-0.34243580698967,50.616981173148
77940,-0.341192841529846,50.4936227966564
78050,-0.34160715341568,50.6580986602005
78160,-0.34243580698967,50.4525053096039
78270,-0.342642962932587,50.4525053096039
78380,-0.34243580698967,50.5758577707614
78490,-0.341192841529846,51.1103969331122
78600,-0.34305727481842,50.9870444719547
78710,-0.34160715341568,51.2748727966564
78820,-0.342228621244431,51.3571136860955
78930,-0.34243580698967,51.398231173148
79030,-0.342021465301514,51.3159961990429
79140,-0.342021465301514,51.4804720625871
79250,-0.340571343898773,51.6449479261312
79360,-0.342228621244431,51.5627129520262
79470,-0.34243580698967,51.4804720625871
79580,-0.34243580698967,51.3571136860955
79690,-0.34160715341568,51.2337612249379
79800,-0.34243580698967,51.0692853613938
79910,-0.34305727481842,50.9459329002362
80020,-0.340985685586929,51.0692853613938
80130,-0.34160715341568,51.1104028484463
80240,-0.342021465301514,50.9870503872888
80350,-0.341399997472763,51.0692853613938
80450,-0.341192841529846,50.9459269849022
80560,-0.341192841529846,51.1103969331122
80670,-0.342021465301514,50.9870444719547
80780,-0.341399997472763,51.1103969331122
80890,-0.340985685586929,51.2748668813223
81000,-0.342021465301514,51.1926319072173
81110,-0.342642962932587,51.2337493942698
81220,-0.341814309358597,51.1926319072173
81330,-0.340157032012939,51.5215777189715
81440,-0.342850118875504,50.9870385566206
81550,-0.34077849984169,51.3982252578139
81660,-0.34077849984169,51.562701121358
81760,-0.340985685586929,51.6860535825156
81870,-0.34305727481842,51.6860535825156
81980,-0.340985685586929,51.9738819072173
82090,-0.341814309358597,51.8094119590072
82200,-0.342642962932587,51.5215836343055
82310,-0.341814309358597,51.480466147253
82420,-0.34243580698967,51.3571077707614
82530,-0.342021465301514,51.3159902837089
82640,-0.341192841529846,51.2748727966564
82750,-0.340985685586929,51.6038186084106
82860,-0.342021465301514,51.3571077707614
82970,-0.341399997472763,51.562701121358
83080,-0.34160715341568,51.562701121358
83180,-0.340985685586929,51.7271710695681
83290,-0.342021465301514,51.7682885566206
83400,-0.341399997472763,51.8505235307257
83510,-0.341814309358597,51.9327585048307
83620,-0.341399997472763,51.8916410177782
83730,-0.342228621244431,51.6860535825156
83840,-0.34243580698967,51.4393427448664
83950,-0.34160715341568,51.4393427448664
84060,-0.34243580698967,51.3159843683748
84170,-0.340985685586929,51.4393368295324
84280,-0.341814309358597,51.4393368295324
84390,-0.34077849984169,51.7682885566206
84490,-0.343471586704254,51.3571077707614
84600,-0.342642962932587,51.2748668813223
84710,-0.34243580698967,51.3159843683748
84820,-0.34160715341568,51.5215777189715
84930,-0.342021465301514,51.3982252578139
85040,-0.34160715341568,51.3571077707614
85150,-0.34243580698967,51.5215777189715
85260,-0.341814309358597,51.2748668813223
85370,-0.341192841529846,51.3571018554273
85480,-0.343471586704254,51.2337493942698
85590,-0.341814309358597,51.0692794460597
85700,-0.342021465301514,51.1103969331122
85810,-0.341814309358597,50.9870444719547
85910,-0.34160715341568,51.0281619590072
86020,-0.342228621244431,51.1104028484463
86130,-0.341399997472763,50.9870444719547
86240,-0.341192841529846,51.2337553096039
86350,-0.342228621244431,51.1515203354988
86460,-0.34243580698967,51.0692794460597
86570,-0.341192841529846,51.2748668813223
86680,-0.34243580698967,51.1926259918832
86790,-0.341399997472763,51.2748609659882
86900,-0.341814309358597,51.3159784530408
87010,-0.34243580698967,51.2337375636017
87120,-0.34305727481842,50.9047917518475
87220,-0.34160715341568,50.9870267259525
87330,-0.342228621244431,51.0692676153916
87440,-0.341192841529846,51.3159784530408
87550,-0.342642962932587,51.3570959400933
87660,-0.341814309358597,51.3570959400933
87770,-0.342021465301514,51.2748609659882
87880,-0.342642962932587,51.1515025894966
87990,-0.34160715341568,51.1926200765492
88100,-0.341814309358597,51.1515025894966
88210,-0.342021465301514,51.1103851024441
88320,-0.341192841529846,50.9870267259525
88430,-0.34077849984169,51.2337375636017
88540,-0.34160715341568,50.9870267259525
88640,-0.342850118875504,50.8636683494609
88750,-0.34305727481842,50.6991924859168
88860,-0.34160715341568,50.4935991353201
88970,-0.340364187955856,50.9459033235659
89080,-0.341192841529846,51.1514907588285
89190,-0.341814309358597,51.2748491353201
89300,-0.342021465301514,51.1514966741626
89410,-0.342021465301514,51.2748550506542
89520,-0.342228621244431,51.1515025894966
89630,-0.341814309358597,51.0692676153916
89740,-0.341399997472763,51.2337375636017
89850,-0.341399997472763,51.2337375636017
89950,-0.34160715341568,51.4393309141983
90060,-0.341399997472763,51.6038008624084
90170,-0.340571343898773,52.0561050506542
90280,-0.342228621244431,52.0149875636017
90390,-0.342850118875504,51.9327525894966
90500,-0.341814309358597,51.9327525894966
90610,-0.341399997472763,52.0972225377067
90720,-0.341814309358597,51.7682767259525
90830,-0.341814309358597,51.9327525894966
90940,-0.343678742647171,51.7271651542341
91050,-0.342228621244431,51.6038126930765
91160,-0.340364187955856,51.9327585048307
91270,-0.34160715341568,51.9327585048307
91370,-0.34160715341568,52.0972343683748
91480,-0.34243580698967,51.9738759918832
91590,-0.342642962932587,51.6860476671815
91700,-0.342228621244431,51.5215777189715
91810,-0.342021465301514,51.6038186084106
91920,-0.342228621244431,51.398231173148
92030,-0.341814309358597,51.3571136860955
92140,-0.34243580698967,51.3571136860955
92250,-0.341814309358597,51.5215895496396
92360,-0.341814309358597,51.6449479261312
92470,-0.342642962932587,51.3571196014295
92580,-0.34160715341568,51.6449479261312
92680,-0.340985685586929,51.7683003872888
92790,-0.343264430761337,51.5627070366921
92900,-0.342021465301514,51.6449479261312
93010,-0.343264430761337,51.398237088482
93120,-0.342642962932587,51.2748787119904
93230,-0.340364187955856,51.3159961990429
93340,-0.342850118875504,51.1926378225513
93450,-0.34305727481842,51.0692853613938
93560,-0.342021465301514,51.1515262508329
93670,-0.341399997472763,51.1926437378854
93780,-0.340985685586929,51.4804720625871
93890,-0.341192841529846,51.8505353613938
94000,-0.34243580698967,51.5627070366921
94100,-0.342642962932587,51.3571136860955
94210,-0.34243580698967,51.2748727966564
94320,-0.343264430761337,50.9048094978497
94430,-0.342642962932587,50.616981173148
94540,-0.34160715341568,50.5347461990429
94650,-0.34160715341568,50.616981173148
94760,-0.340571343898773,50.7814570366921
94870,-0.341192841529846,50.7403395496396
94980,-0.34077849984169,50.9870503872888
95090,-0.342850118875504,50.9459329002362
95200,-0.342642962932587,50.7814570366921
95310,-0.340985685586929,50.616981173148
95410,-0.342850118875504,50.616981173148
95520,-0.342642962932587,50.2469119590072
95630,-0.34305727481842,49.7946077707614
95740,-0.342850118875504,49.4245444719547
95850,-0.342021465301514,49.6301378225513
95960,-0.342228621244431,49.3834329002362
96070,-0.34160715341568,49.4245503872888
96180,-0.341399997472763,49.6712612249379
96290,-0.342850118875504,49.4656678743413
96400,-0.34160715341568,49.6301437378854
96510,-0.342021465301514,49.6301437378854
96620,-0.341192841529846,49.6301437378854
96730,-0.342642962932587,49.3011979261312
96830,-0.341192841529846,49.4656678743413
96940,-0.34243580698967,49.2600745237446
97050,-0.34160715341568,49.2600745237446
97160,-0.342021465301514,49.054487088482
97270,-0.341399997472763,49.1778395496396
97380,-0.341192841529846,49.2189570366921
97490,-0.341399997472763,49.3011920107971
97600,-0.341399997472763,49.3011920107971
97710,-0.340985685586929,49.5478969331122
97820,-0.342228621244431,49.5890203354988
97930,-0.340985685586929,49.7123727966564
98040,-0.340985685586929,50.000201121358
98140,-0.343264430761337,49.5479028484463
98250,-0.342228621244431,49.4656678743413
98360,-0.341399997472763,49.3423094978497
98470,-0.341814309358597,49.6712553096039
98580,-0.342850118875504,49.6301378225513
98690,-0.342642962932587,49.5890203354988
98800,-0.341399997472763,49.6301378225513
98910,-0.342021465301514,49.6301378225513
99020,-0.340571343898773,49.835731173148
99130,-0.341192841529846,50.0824420107971
99240,-0.34243580698967,49.9590836343055
99350,-0.342021465301514,49.7946136860955
99460,-0.342228621244431,50.0413245237446
99560,-0.342228621244431,49.9590895496396
99670,-0.34160715341568,50.0413245237446
99780,-0.342021465301514,50.0002070366921
99890,-0.342021465301514,49.9179720625871
100000,-0.341814309358597,50.0002070366921
100110,-0.341399997472763,50.0002070366921
100220,-0.340985685586929,50.0413245237446
100330,-0.343264430761337,49.835731173148
100440,-0.34243580698967,49.835731173148
100550,-0.34160715341568,49.7534961990429
100660,-0.341192841529846,50.0002070366921
100770,-0.341192841529846,50.0413245237446
100870,-0.34243580698967,49.917966147253
100980,-0.342642962932587,49.8768486602005
101090,-0.342228621244431,50.0413245237446
101200,-0.341192841529846,50.1235594978497
101310,-0.341814309358597,50.2057944719547
101420,-0.34160715341568,50.1235594978497
101530,-0.341399997472763,50.3702703354988
101640,-0.34243580698967,50.2469119590072
101750,-0.341192841529846,50.4113819072173
101860,-0.34160715341568,50.6169752578139
101970,-0.341399997472763,50.6580927448664
102080,-0.34243580698967,50.5347343683748
102190,-0.340985685586929,50.7403218036374
102290,-0.34305727481842,50.3702585048307
102400,-0.340985685586929,50.3291351024441
102510,-0.34160715341568,50.3291351024441
102620,-0.34160715341568,50.5758459400933
102730,-0.342850118875504,50.6169634271458
102840,-0.341399997472763,50.6580809141983
102950,-0.34077849984169,50.5758459400933
103060,-0.340364187955856,50.7403218036374
103170,-0.342021465301514,50.6992043165849
103280,-0.341399997472763,50.8225567777424
103390,-0.341192841529846,50.9870267259525
103500,-0.341192841529846,51.1926141612151
103600,-0.341399997472763,51.2748491353201
103710,-0.34243580698967,51.0692557847235
103820,-0.341814309358597,50.9870208106185
103930,-0.341399997472763,51.028138297671
104040,-0.341814309358597,50.9459033235659
104150,-0.341192841529846,50.8225449470743
104260,-0.341399997472763,50.9870148952844
104370,-0.34243580698967,51.0692498693894
104480,-0.34160715341568,51.1103673564419
104590,-0.341814309358597,51.0281323823369
104700,-0.342021465301514,50.9870148952844
104810,-0.341814309358597,50.9870148952844
104920,-0.34077849984169,51.5626715446877
105020,-0.342642962932587,51.4804306552487
105130,-0.341399997472763,51.274837304652
105240,-0.341399997472763,51.3159547917045
105350,-0.342021465301514,51.2337198175995
105460,-0.341192841529846,51.4804306552487
105570,-0.34243580698967,51.5215481423012
105680,-0.342228621244431,51.5215481423012
105790,-0.342228621244431,51.4804306552487
105900,-0.342228621244431,51.4804306552487
106010,-0.34160715341568,51.5215481423012
106120,-0.34160715341568,51.6860240058453
106230,-0.342228621244431,51.6037890317403
106330,-0.342228621244431,51.5215540576352
106440,-0.340157032012939,52.0149757329336
106550,-0.342850118875504,51.7682648952844
106660,-0.341399997472763,51.6860299211794
106770,-0.340571343898773,52.2205690835302
106880,-0.342021465301514,52.2205690835302
106990,-0.341814309358597,52.5083974082319
107100,-0.342021465301514,52.6317557847235
107210,-0.342228621244431,52.2616924859168
107320,-0.342021465301514,52.4261683494609
107430,-0.342021465301514,52.6317617000575
107540,-0.34243580698967,52.5495208106185
107660,-0.341814309358597,52.4672858365134
107750,-0.341814309358597,52.3028158883033
107860,-0.34160715341568,52.2205809141983
107970,-0.34160715341568,52.3850567777424
108080,-0.341814309358597,52.5495326412866
108190,-0.342021465301514,52.6317735307257
108300,-0.342228621244431,52.8373668813223
108410,-0.341399997472763,53.0840777189715
108520,-0.34243580698967,52.9196018554273
108630,-0.34243580698967,52.7551259918832
108740,-0.342642962932587,52.3439392906899
108850,-0.342228621244431,52.1383518554273
108960,-0.34160715341568,51.9738759918832
109060,-0.342021465301514,52.1383518554273
109170,-0.340985685586929,52.4672976671815
109280,-0.342228621244431,52.2205927448664
109390,-0.342021465301514,52.3850686084106
109500,-0.341814309358597,52.5495444719547
109610,-0.342642962932587,52.6317794460597
109720,-0.342021465301514,52.7962553096039
109830,-0.341192841529846,52.9607252578139
109940,-0.341814309358597,53.042960231919
110050,-0.34160715341568,53.042960231919
110160,-0.342850118875504,52.7551319072173
110270,-0.34243580698967,52.8373668813223
110380,-0.34243580698967,52.6728910177782
110480,-0.341399997472763,52.7962434789357
110590,-0.34160715341568,52.7140085048307
110700,-0.342021465301514,52.8373668813223
110810,-0.341399997472763,52.7962493942698
110920,-0.34243580698967,52.7962493942698
111030,-0.341192841529846,52.8784843683748
111140,-0.341192841529846,53.0429543165849
111250,-0.340985685586929,53.1251892906899
111360,-0.34160715341568,53.0429543165849
111470,-0.341814309358597,52.9607193424799
111580,-0.34243580698967,52.7551259918832
111690,-0.341192841529846,52.7140085048307
111790,-0.342021465301514,52.7551259918832
111900,-0.342642962932587,52.426180180129
112010,-0.34160715341568,52.3028277189715
112120,-0.342642962932587,52.426180180129
112230,-0.341814309358597,52.5084151542341
112340,-0.34160715341568,52.4672976671815
112450,-0.34160715341568,52.5084151542341
112560,-0.340571343898773,52.9607193424799
112670,-0.34077849984169,53.3307885566206
112780,-0.341814309358597,53.2485535825156
112890,-0.34243580698967,53.1663126930765
113000,-0.342228621244431,52.8373668813223
113110,-0.341814309358597,52.7140144201648
113210,-0.342642962932587,52.6728969331122
113320,-0.342021465301514,52.6728969331122
113430,-0.34160715341568,52.7962493942698
113540,-0.34160715341568,52.9196018554273
113650,-0.341192841529846,53.0018368295324
113760,-0.341399997472763,53.1251892906899
113870,-0.341192841529846,53.2896592389
113980,-0.341192841529846,53.4130117000575
114090,-0.340364187955856,53.6186050506542
114200,-0.341814309358597,53.4541351024441
114310,-0.341399997472763,53.8241984012508
114420,-0.342228621244431,53.8653218036374
114520,-0.342228621244431,53.7419693424799
114630,-0.34160715341568,53.6597343683748
114740,-0.341814309358597,53.5363819072173
114850,-0.340571343898773,53.906451121358
114960,-0.342642962932587,53.906451121358
115070,-0.34160715341568,54.0298035825156
115180,-0.342228621244431,53.824216147253
115290,-0.34305727481842,53.5775053096039
115400,-0.341399997472763,53.6186227966564
115510,-0.34243580698967,53.4130294460597
115620,-0.341814309358597,53.5363878225513
115730,-0.34160715341568,53.4541528484463
115840,-0.342021465301514,53.3719178743413
115940,-0.34305727481842,53.0429720625871
116050,-0.34305727481842,52.9196196014295
116160,-0.342228621244431,52.6729146791144
116270,-0.34243580698967,52.796267140272
116380,-0.342021465301514,52.5906797050094
116490,-0.342228621244431,52.4673272438518
116600,-0.342642962932587,52.2617338932552
116710,-0.342228621244431,52.3850922697468
116820,-0.340985685586929,52.4673272438518
116930,-0.342228621244431,52.1794989191502
117040,-0.34160715341568,51.932788081501
117150,-0.341814309358597,51.9739055685535
117250,-0.342021465301514,51.850553107396
117360,-0.34243580698967,51.6038422697468
117470,-0.34160715341568,51.5216072956418
117580,-0.343471586704254,51.1104265097825
117690,-0.342642962932587,51.06930902273
117800,-0.34243580698967,50.9459506462384
117910,-0.342642962932587,50.6992398085893
118020,-0.34243580698967,50.5758814320976
118130,-0.341814309358597,50.4525289709401
118240,-0.341399997472763,50.4525289709401
118350,-0.341814309358597,50.5758873474317
118460,-0.34160715341568,50.5758873474317
118570,-0.34243580698967,50.4525289709401
118670,-0.342021465301514,50.4525289709401
118780,-0.34160715341568,50.4936464579926
118890,-0.341814309358597,50.288053107396
119000,-0.342228621244431,50.3702939968351
119110,-0.34243580698967,50.1647006462384
119220,-0.341399997472763,50.1647006462384
119330,-0.34243580698967,50.0824597567993
119440,-0.342021465301514,49.9179898085893
119550,-0.341399997472763,50.1235831591859
119660,-0.34160715341568,50.2469356203435
119770,-0.342021465301514,50.288053107396
119880,-0.341814309358597,50.370288081501
119980,-0.341192841529846,50.452523055606
120090,-0.342021465301514,50.370288081501
120200,-0.342021465301514,50.4114055685535
120310,-0.34243580698967,50.3702821661669
120420,-0.342228621244431,49.9591013803077
120530,-0.34077849984169,50.370288081501
120640,-0.341399997472763,50.370288081501
120750,-0.342642962932587,49.9591013803077
120860,-0.341814309358597,50.0002188673602
120970,-0.342021465301514,49.9591013803077
121080,-0.342021465301514,49.9591013803077
121190,-0.341399997472763,50.1235713285178
121300,-0.341814309358597,50.1646888155703
121400,-0.342021465301514,50.1646888155703
121510,-0.340364187955856,50.5758755167636
121620,-0.341399997472763,50.6581104908686
121730,-0.34160715341568,50.6992279779211
121840,-0.341192841529846,50.7814629520262
121950,-0.342021465301514,50.6992279779211
122060,-0.342021465301514,50.6581104908686
122170,-0.34160715341568,50.7403454649736
122280,-0.34160715341568,50.8636979261312
122390,-0.34243580698967,50.6581045755346
122500,-0.34305727481842,50.534752114377
122610,-0.340985685586929,50.8225804390787
122710,-0.343678742647171,50.6169930038161
122820,-0.342021465301514,50.6581104908686
122930,-0.342228621244431,50.5347580297111
123040,-0.34160715341568,50.6169930038161
123150,-0.340985685586929,50.6169930038161
123260,-0.342228621244431,50.6169930038161
123370,-0.341814309358597,50.6581104908686
123480,-0.34160715341568,50.6992279779211
123590,-0.342642962932587,50.6992279779211
123700,-0.342228621244431,50.6581104908686
123810,-0.342228621244431,50.452523055606
123920,-0.34160715341568,50.4936405426585
124030,-0.340985685586929,50.6169930038161
124130,-0.342021465301514,50.7814688673602
124240,-0.340985685586929,51.0692971920619
124350,-0.342850118875504,50.9870622179569
124460,-0.341814309358597,50.9048272438518
124570,-0.341814309358597,50.8637097567993
124680,-0.342642962932587,50.7403513803077
124790,-0.34243580698967,50.5347580297111
124900,-0.342228621244431,50.5758814320976
125010,-0.341192841529846,50.5758814320976
125120,-0.34077849984169,50.6581223215367
125230,-0.340985685586929,50.6581223215367
125340,-0.341814309358597,50.6170048344842
125440,-0.342021465301514,50.5758873474317
125550,-0.342228621244431,50.6170107498183
125660,-0.341814309358597,50.4936582886607
125770,-0.342642962932587,50.3702999121691
125880,-0.34160715341568,50.5758932627658
125990,-0.34160715341568,50.5758932627658
126100,-0.341814309358597,50.7403691263099
126210,-0.341192841529846,50.8637215874674
126320,-0.341399997472763,50.90483907452
126430,-0.341399997472763,50.9459565615725
126540,-0.342642962932587,50.5347698603792
126650,-0.341399997472763,50.4114114838876
126760,-0.34160715341568,50.4525289709401
126860,-0.340571343898773,50.8225981850809
126970,-0.341814309358597,50.9048331591859
127080,-0.341814309358597,50.9048331591859
127190,-0.34160715341568,51.1104265097825
127300,-0.341192841529846,51.2748964579926
127410,-0.342021465301514,51.1926614838876
127520,-0.34243580698967,51.0281856203435
127630,-0.34243580698967,50.7814747826943
127740,-0.342228621244431,50.6170048344842
127850,-0.34160715341568,50.5347698603792
127960,-0.341399997472763,50.4936523733267
128070,-0.340364187955856,50.4936523733267
128170,-0.342021465301514,50.4525348862742
128280,-0.34160715341568,50.4114173992216
128390,-0.342228621244431,50.4114173992216
128500,-0.34160715341568,50.5347698603792
128610,-0.341192841529846,50.6170048344842
128720,-0.341399997472763,50.6992398085893
128830,-0.341399997472763,50.5347639450451
128940,-0.342228621244431,50.6170048344842
129050,-0.342642962932587,50.4114114838876
129160,-0.342228621244431,50.4114114838876
129270,-0.342642962932587,50.4936464579926
129380,-0.341814309358597,50.4114114838876
129490,-0.342021465301514,50.4936523733267
129590,-0.340985685586929,50.6581223215367
129700,-0.34160715341568,50.6581223215367
129810,-0.34160715341568,50.7403572956418
129920,-0.340985685586929,51.151538081501
130030,-0.342228621244431,51.3160139450451
130140,-0.34243580698967,51.2748905426585
130250,-0.342850118875504,51.1926555685535
130360,-0.341399997472763,51.3160080297111
130470,-0.342228621244431,51.3160080297111
130580,-0.342228621244431,51.3982489191502
130690,-0.342642962932587,51.3160080297111
130800,-0.34243580698967,51.0281797050094
130900,-0.342642962932587,50.9459388155703
131010,-0.342228621244431,50.8225863544127
131120,-0.341399997472763,50.9048213285178
131230,-0.34243580698967,50.8225804390787
131340,-0.341814309358597,50.9459388155703
131450,-0.342228621244431,50.8225863544127
131560,-0.342021465301514,51.1104146791144
131670,-0.341192841529846,51.3982430038161
131780,-0.342228621244431,51.4393664062027
131890,-0.34160715341568,51.6449597567993
132000,-0.342228621244431,51.6860831591859
132110,-0.342021465301514,51.6449656721334
132220,-0.341192841529846,51.6860831591859
132320,-0.341814309358597,51.6860831591859
132430,-0.341814309358597,51.6449656721334
132540,-0.341399997472763,51.85055902273
132650,-0.342642962932587,51.7272006462384
132760,-0.341192841529846,51.8094356203435
132870,-0.341814309358597,51.8094356203435
132980,-0.342642962932587,51.7271947309044
133090,-0.341399997472763,51.932788081501
133200,-0.341192841529846,51.9739055685535
133310,-0.342228621244431,52.0150289709401
133420,-0.34160715341568,52.0972639450451
133530,-0.34243580698967,51.8916705944485
133630,-0.34160715341568,51.8916705944485
133740,-0.341192841529846,52.0561405426585
133850,-0.34243580698967,51.9327821661669
133960,-0.34160715341568,51.8505471920619
134070,-0.342021465301514,51.8505471920619
134180,-0.341192841529846,52.015017140272
134290,-0.341192841529846,52.2617279779211
134400,-0.342642962932587,52.179487088482
134510,-0.342021465301514,51.9327762508329
134620,-0.342021465301514,51.8094237896753
134730,-0.342850118875504,51.7683063026228
134840,-0.341814309358597,51.7683063026228
134950,-0.340985685586929,51.9738937378854
135050,-0.34305727481842,51.7683003872888
135160,-0.341814309358597,51.6860654131837
135270,-0.342021465301514,51.6449479261312
135380,-0.342642962932587,51.5215895496396
135490,-0.341399997472763,51.3159961990429
135600,-0.342228621244431,51.1515262508329
135710,-0.340985685586929,51.2748787119904
135820,-0.342228621244431,51.0692912767278
135930,-0.34077849984169,51.316002114377
136040,-0.342228621244431,51.2748846273245
136150,-0.342642962932587,51.0692912767278
136260,-0.341814309358597,51.0281737896753
136360,-0.342850118875504,50.9459388155703
136470,-0.341814309358597,51.1926496532195
136580,-0.341192841529846,51.1515321661669
136690,-0.342228621244431,51.4393604908686
136800,-0.341814309358597,51.4804779779211
136910,-0.341399997472763,51.6449479261312
137020,-0.341192841529846,51.7271829002362
137130,-0.341399997472763,51.6449479261312
137240,-0.342021465301514,51.6860654131837
137350,-0.341814309358597,51.6860654131837
137460,-0.344300240278244,51.1515262508329
137570,-0.342228621244431,51.233767140272
137680,-0.342021465301514,51.2748846273245
137780,-0.342228621244431,51.2748846273245
137890,-0.34160715341568,51.2748846273245
138000,-0.341399997472763,51.1926496532195
138110,-0.342021465301514,51.1926496532195
138220,-0.341399997472763,51.1104146791144
138330,-0.343264430761337,51.0281797050094
138440,-0.34243580698967,50.9048213285178
138550,-0.341814309358597,50.9048213285178
138660,-0.34160715341568,51.1104146791144
138770,-0.341814309358597,51.233773055606
138880,-0.341192841529846,51.4393604908686
138990,-0.34160715341568,51.3571255167636
139090,-0.34243580698967,51.0281737896753
139200,-0.342021465301514,50.8225863544127
139310,-0.342228621244431,50.7403513803077
139420,-0.341192841529846,50.9048213285178
139530,-0.342021465301514,50.9459388155703
139640,-0.341399997472763,51.0281737896753
139750,-0.342021465301514,51.1515321661669
139860,-0.34160715341568,51.1515321661669
139970,-0.34305727481842,50.8637038414653
140080,-0.34077849984169,51.0692971920619
140190,-0.342021465301514,50.9048272438518
140300,-0.341814309358597,50.8225922697468
140410,-0.341814309358597,50.7403572956418
140510,-0.34243580698967,50.7814747826943
140620,-0.342228621244431,50.6170048344842
140730,-0.342021465301514,50.5347698603792
140840,-0.34160715341568,50.3291765097825
140950,-0.34160715341568,50.3702939968351
141060,-0.341814309358597,50.3702939968351
141170,-0.342642962932587,50.1647006462384
141280,-0.34160715341568,50.0824656721334
141390,-0.342021465301514,50.0824656721334
141500,-0.341192841529846,50.3291765097825
141610,-0.342642962932587,50.28805902273
141720,-0.342642962932587,50.2058181332909
141820,-0.341192841529846,50.288053107396
141930,-0.341814309358597,50.2058181332909
142040,-0.343471586704254,49.5890439968351
142150,-0.342642962932587,49.4656856203435
142260,-0.341192841529846,49.5479205944485
142370,-0.342228621244431,49.5479205944485
142480,-0.342021465301514,49.4656856203435
142590,-0.342228621244431,49.2600981850809
142700,-0.342228621244431,49.0956282368708
142810,-0.342021465301514,48.9722757757133
142920,-0.340157032012939,49.3834565615725
143030,-0.341814309358597,49.5479324251166
143140,-0.342021465301514,49.5890499121691
143240,-0.342021465301514,49.7124082886607
143350,-0.341814309358597,49.7124082886607
143460,-0.34077849984169,49.9591191263099
143570,-0.34160715341568,49.8357666651523
143680,-0.342021465301514,49.7535316910473
143790,-0.343264430761337,49.4245858792931
143900,-0.342228621244431,49.177880956978
144010,-0.341399997472763,49.3423509051881
144120,-0.34160715341568,49.5068267687322
144230,-0.34160715341568,49.7535376063814
144340,-0.34243580698967,49.5479442557847
144450,-0.34243580698967,49.5068208533981
144550,-0.341192841529846,49.7124082886607
144660,-0.342228621244431,49.7946491780998
144770,-0.342642962932587,49.7535316910473
144880,-0.340157032012939,50.2469533663456
144990,-0.34243580698967,50.205829963959
145100,-0.34305727481842,49.8768841522049
145210,-0.341399997472763,50.0824775028015
145320,-0.34077849984169,50.2880708533981
145430,-0.342021465301514,50.3291883404507
145540,-0.342850118875504,50.1647124769065
145650,-0.341399997472763,50.123594989854
145760,-0.342850118875504,50.0002366133624
145870,-0.342642962932587,49.7946432627658
145970,-0.341814309358597,49.8768782368708
146080,-0.342228621244431,49.8357607498183
146190,-0.341814309358597,49.7124082886607
146300,-0.340571343898773,49.9591191263099
146410,-0.342021465301514,49.9180016392574
146520,-0.342642962932587,49.6712908016082
146630,-0.342021465301514,49.7946491780998
146740,-0.342021465301514,49.6301792298898
146850,-0.341814309358597,49.6301792298898
146960,-0.342021465301514,49.7535376063814
147070,-0.341192841529846,49.7946550934339
147180,-0.342642962932587,49.5068267687322
147280,-0.34243580698967,49.4657033663456
147390,-0.34305727481842,49.177875041644
147500,-0.341399997472763,49.3834683922406
147610,-0.342642962932587,49.177875041644
147720,-0.34305727481842,48.8078117428372
147830,-0.342021465301514,48.8900526322763
147940,-0.342021465301514,48.8078176581713
148050,-0.34243580698967,48.7255767687322
148160,-0.341814309358597,48.6022243075747
148270,-0.34243580698967,48.3555134699255
148380,-0.342850118875504,48.314395982873
148490,-0.34243580698967,48.2321550934339
148600,-0.342642962932587,48.1087967169423
148700,-0.34160715341568,48.3555075545914
148810,-0.342021465301514,48.3143900675389
148920,-0.342228621244431,48.0676851452238
149030,-0.341399997472763,48.396630956978
149140,-0.341814309358597,48.396630956978
149250,-0.342850118875504,48.2321550934339
149360,-0.342228621244431,48.314395982873
149470,-0.342642962932587,48.0676851452238
149580,-0.34305727481842,47.9032092816797
149690,-0.342021465301514,47.6976218464171
149800,-0.341192841529846,47.9032092816797
149910,-0.342642962932587,47.5331400675389
150020,-0.342642962932587,47.4508991780998
150120,-0.34243580698967,47.4920166651523
150230,-0.34243580698967,47.3686582886607
150340,-0.342021465301514,47.5331341522049
150450,-0.341399997472763,47.6153691263099
150560,-0.341192841529846,47.6153691263099
150670,-0.342642962932587,47.5331282368708
150780,-0.341192841529846,47.6564806980283
150890,-0.34305727481842,47.3275348862742
151000,-0.341814309358597,47.2041824251166
151110,-0.342642962932587,46.9574715874674
151220,-0.34305727481842,46.7518782368708
151330,-0.342021465301514,46.7107607498183
151430,-0.342642962932587,47.0397065615725
151540,-0.342021465301514,47.080824048625
151650,-0.34243580698967,46.9985831591859
151760,-0.342021465301514,47.0397006462384
151870,-0.341814309358597,46.9985831591859
151980,-0.34243580698967,46.7929898085893
152090,-0.340985685586929,46.9985772438518
152200,-0.34243580698967,46.7929838932552
152310,-0.34243580698967,46.9574538414653
152420,-0.34160715341568,47.1219297050094
152530,-0.341814309358597,47.1219297050094
152640,-0.341814309358597,47.0808122179569
152750,-0.340571343898773,47.327523055606
152850,-0.34077849984169,47.4097639450451
152960,-0.341399997472763,47.4508814320976
153070,-0.34160715341568,47.6153572956418
153180,-0.340985685586929,47.8209447309044
153290,-0.34305727481842,47.6564688673602
153400,-0.341192841529846,47.6564688673602
153510,-0.34243580698967,47.5742279779211
153620,-0.342228621244431,47.4097580297111
153730,-0.341399997472763,47.5331104908686
153840,-0.342021465301514,47.4508755167636
153950,-0.341814309358597,47.6975863544127
154060,-0.342228621244431,47.4097580297111
154160,-0.342021465301514,47.4097580297111
154270,-0.342021465301514,47.3686405426586
154380,-0.34243580698967,47.2452821661669
154490,-0.342228621244431,47.2864055685535
154600,-0.34243580698967,47.2452821661669
154710,-0.34243580698967,47.1630412767278
154820,-0.342228621244431,47.0396888155703
154930,-0.34160715341568,47.0396888155703
155040,-0.342228621244431,46.9574538414653
155150,-0.342021465301514,47.0808122179569
155260,-0.341399997472763,47.1219297050094
155370,-0.341192841529846,47.2863996532195
155480,-0.342021465301514,47.1219297050094
155590,-0.341814309358597,47.2864055685535
155690,-0.342021465301514,47.4097639450451
155800,-0.343471586704254,46.9574656721334
155910,-0.343471586704254,46.6285198603792
156020,-0.343471586704254,46.6285198603792
156130,-0.341399997472763,46.8752306980283
156240,-0.342642962932587,46.5874023733267
156350,-0.341814309358597,46.6696373474317
156460,-0.34305727481842,46.4640439968351
156570,-0.341814309358597,46.5462789709401
156680,-0.342850118875504,46.4229205944485
156790,-0.34243580698967,46.3406797050094
156890,-0.34160715341568,46.0528513803077
157000,-0.342228621244431,45.9706164062027
157110,-0.342642962932587,45.8472580297111
157220,-0.342642962932587,45.7238996532195
157330,-0.342642962932587,45.5594237896753
157440,-0.342021465301514,45.3127129520262
157550,-0.342021465301514,45.2304779779211
157660,-0.341814309358597,45.2715954649737
157770,-0.341399997472763,45.6416587637804
157880,-0.342228621244431,45.6416587637804
157990,-0.343264430761337,45.2715954649737
158100,-0.34243580698967,45.1071196014295
158210,-0.341814309358597,45.066002114377
158310,-0.34160715341568,45.2304779779211
158420,-0.34160715341568,45.3949538414653
158530,-0.342021465301514,45.2304838932552
158640,-0.34243580698967,45.1893604908686
158750,-0.342228621244431,45.2716013803077
158860,-0.34160715341568,44.983773055606
158970,-0.341814309358597,45.1071314320976
159080,-0.341192841529846,45.4771947309044
159190,-0.342228621244431,45.3127247826943
159300,-0.341814309358597,45.1071314320976
159410,-0.34305727481842,44.901538081501
159520,-0.342228621244431,45.0248964579926
159620,-0.34243580698967,44.819303107396
159730,-0.34243580698967,44.901538081501
159840,-0.34243580698967,44.9426555685535
159950,-0.342642962932587,44.7781797050094
160060,-0.341814309358597,44.8604146791144
160170,-0.342021465301514,44.8192971920619
160280,-0.342642962932587,44.4081104908686
160390,-0.34243580698967,44.3258696014295
160500,-0.34243580698967,44.366987088482
160610,-0.340571343898773,44.6548154131837
160720,-0.34243580698967,44.5725745237446
160830,-0.34243580698967,44.449216147253
160940,-0.341399997472763,44.5725686084106
161040,-0.341814309358597,44.449216147253
161150,-0.34160715341568,44.6548094978497
161260,-0.341399997472763,44.8604028484463
161370,-0.341814309358597,45.1071136860955
161480,-0.342021465301514,44.9837612249379
161590,-0.341814309358597,45.148237088482
161700,-0.342021465301514,45.3538304390787
161810,-0.341814309358597,45.3949479261312
161920,-0.340364187955856,45.7238937378854
162030,-0.34160715341568,45.8883696014295
162140,-0.34243580698967,45.7650112249379
162250,-0.341814309358597,45.8883696014295
162350,-0.34243580698967,45.9706045755346
162460,-0.343471586704254,45.765017140272
162570,-0.341814309358597,45.9294930038161
162680,-0.34388592839241,45.4771888155703
162790,-0.342228621244431,45.4360713285178
162900,-0.34160715341568,45.5594237896753
163010,-0.34160715341568,45.5183063026228
163120,-0.342228621244431,45.4360713285178
163230,-0.342228621244431,45.5594297050094
163340,-0.341192841529846,45.765017140272
163450,-0.342642962932587,45.765017140272
163560,-0.341192841529846,46.1350804390787
163670,-0.34160715341568,46.2173154131837
163770,-0.341814309358597,46.0939629520262
163880,-0.342642962932587,46.0939629520262
163990,-0.34243580698967,46.1350804390787
164100,-0.341399997472763,46.3406737896753
164210,-0.342228621244431,46.3817971920619
164320,-0.340985685586929,46.5873846273245
164430,-0.342021465301514,46.4640321661669
164540,-0.341399997472763,46.4229146791144
164650,-0.34160715341568,46.6285080297111
164760,-0.342850118875504,46.2995622179569
164870,-0.342228621244431,46.464038081501
164980,-0.34160715341568,46.5051555685535
165080,-0.342021465301514,46.6285139450451
165190,-0.34160715341568,46.9163422697468
165300,-0.342228621244431,46.8752247826943
165410,-0.340571343898773,47.2864114838876
165520,-0.34243580698967,47.2041705944485
165630,-0.341399997472763,47.4097639450451
165740,-0.342228621244431,47.3686464579926
165850,-0.342228621244431,47.2864114838876
165960,-0.340571343898773,47.6564806980283
166070,-0.341399997472763,47.5742457239233
166180,-0.341814309358597,47.6976041004149
166290,-0.34160715341568,47.8620799639591
166400,-0.341399997472763,47.9031974510116
166500,-0.34243580698967,47.77983907452
166610,-0.342021465301514,47.7387215874674
166720,-0.342228621244431,47.4097757757133
166830,-0.342850118875504,46.99858907452
166940,-0.341814309358597,46.9163541004149
167050,-0.341399997472763,46.9574715874674
167160,-0.34160715341568,46.8341191263099
167270,-0.341399997472763,47.1630649380641
167380,-0.34160715341568,47.0808299639591
167490,-0.341399997472763,47.2864233145557
167600,-0.341814309358597,47.3686582886607
167710,-0.341814309358597,47.2864233145557
167810,-0.340985685586929,47.4920107498183
167920,-0.341814309358597,47.4920107498183
168030,-0.342228621244431,47.4920107498183
168140,-0.340985685586929,47.6975981850809
168250,-0.342228621244431,47.6564806980283
168360,-0.34243580698967,47.6564806980283
168470,-0.34160715341568,47.7798331591859
168580,-0.341399997472763,47.9854265097825
168690,-0.342228621244431,48.0265499121691
168800,-0.342642962932587,47.94430902273
168910,-0.34305727481842,47.6564806980283
169020,-0.342021465301514,47.6975981850809
169130,-0.342642962932587,47.5742398085893
169230,-0.34160715341568,47.5331223215367
169340,-0.34160715341568,47.4508873474317
169450,-0.343264430761337,47.2041765097825
169560,-0.341192841529846,47.3275289709401
169670,-0.342228621244431,47.2864114838876
169780,-0.342228621244431,47.5331223215367
169890,-0.342021465301514,47.8209506462384
170000,-0.34160715341568,48.1910139450451
170110,-0.341814309358597,48.1087789709401
170220,-0.341814309358597,48.2732548344842
170330,-0.341814309358597,48.2732548344842
170440,-0.342021465301514,48.4788481850809
170540,-0.34243580698967,48.3554898085893
170650,-0.341814309358597,48.5610831591859
170760,-0.34243580698967,48.5610831591859
170870,-0.34160715341568,48.5610831591859
170980,-0.342850118875504,48.4377247826943
171090,-0.342228621244431,48.5199656721334
171200,-0.343678742647171,48.3143782368708
171310,-0.341814309358597,48.4788541004149
171420,-0.342228621244431,48.4377366133624
171530,-0.34243580698967,48.3554957239233
171640,-0.340571343898773,48.6022065615725
171750,-0.34077849984169,48.7255649380641
171860,-0.342850118875504,48.6022065615725
171960,-0.341814309358597,48.8900348862742
172070,-0.342228621244431,48.9311582886607
172180,-0.342021465301514,48.8900408016082
172290,-0.34305727481842,48.6022124769065
172400,-0.341814309358597,48.561094989854
172510,-0.34160715341568,48.6433299639591
172620,-0.342228621244431,48.6844533663456
172730,-0.34305727481842,48.5199775028015
172840,-0.34160715341568,48.5199775028015
172950,-0.342021465301514,48.478860015749
173060,-0.34243580698967,48.2321491780998
173170,-0.342228621244431,48.2321491780998
173270,-0.341814309358597,48.2321491780998
173380,-0.34243580698967,48.3555016392574
173490,-0.341399997472763,48.5199715874674
173600,-0.340364187955856,48.9311582886607
173710,-0.34243580698967,48.9311582886607
173820,-0.341814309358597,49.0545166651523
173930,-0.34243580698967,49.0956341522049
174040,-0.342642962932587,48.9311582886607
174150,-0.342021465301514,48.9311582886607
174260,-0.343471586704254,48.7666883404507
174370,-0.342642962932587,48.7255708533981
174480,-0.342021465301514,48.8078117428372
174590,-0.340985685586929,48.7255708533981
174690,-0.341192841529846,48.9722816910473
174800,-0.342850118875504,48.8900467169423
174910,-0.342021465301514,48.7666942557847
175020,-0.342228621244431,48.6844592816797
175130,-0.34243580698967,48.5199834181356
175240,-0.342021465301514,48.396630956978
175350,-0.34160715341568,48.4377484440305
175460,-0.34243580698967,48.3555075545914
175570,-0.342021465301514,48.3143900675389
175680,-0.34305727481842,48.1087967169423
175790,-0.34160715341568,48.1499142039948
175900,-0.342228621244431,47.7798509051881
176000,-0.341399997472763,47.8209683922406
176110,-0.341814309358597,47.9443267687322
176220,-0.342021465301514,47.9032092816797
176330,-0.342850118875504,47.8209743075747
176440,-0.34160715341568,48.1910376063814
176550,-0.341814309358597,48.1910376063814
176660,-0.341814309358597,48.6022243075747
176770,-0.342021465301514,48.6433417946272
176880,-0.340985685586929,48.7666942557847
176990,-0.342021465301514,48.6844592816797
177100,-0.342021465301514,48.7255767687322
177210,-0.34243580698967,48.6844533663456
177320,-0.341814309358597,48.5611009051881
177420,-0.342228621244431,48.6433417946272
177530,-0.341814309358597,48.5199893334696
177640,-0.342642962932587,48.314395982873
177750,-0.340985685586929,48.4788659310831
177860,-0.342021465301514,48.6022243075747
177970,-0.342021465301514,48.6844651970138
178080,-0.34160715341568,48.6433477099612
178190,-0.34160715341568,48.7667001711188
178300,-0.342021465301514,48.5611127358562
178410,-0.34305727481842,48.3555193852596
178520,-0.340985685586929,48.4377543593646
178630,-0.342021465301514,48.3555193852596
178730,-0.341814309358597,48.5611127358562
178840,-0.342228621244431,48.5611127358562
178950,-0.34243580698967,48.3966368723121
179060,-0.343264430761337,48.1499260346629
179170,-0.341399997472763,48.1910435217154
179280,-0.34305727481842,48.0265676581713
179390,-0.341192841529846,47.9032092816797
179500,-0.34243580698967,47.9032092816797
179610,-0.341192841529846,47.9443267687322
179720,-0.342021465301514,47.9854442557847
179830,-0.341814309358597,48.0676792298898
179940,-0.341399997472763,47.9032033663456
180050,-0.340985685586929,47.9854383404507
180150,-0.341814309358597,47.9854383404507
180260,-0.342228621244431,47.8620858792931
180370,-0.343264430761337,47.4920225804864
180480,-0.34243580698967,47.4920225804864
180590,-0.34243580698967,47.4097816910473
180700,-0.342228621244431,47.4097816910473
180810,-0.342850118875504,47.4097816910473
180920,-0.342228621244431,47.3275467169423
181030,-0.341814309358597,47.2453117428372
181140,-0.34243580698967,47.0808358792931
181250,-0.341399997472763,47.0808358792931
181360,-0.342021465301514,46.9986009051881
181460,-0.342021465301514,46.8752484440305
181570,-0.34243580698967,46.7518900675389
181680,-0.342228621244431,46.6696550934339
181790,-0.342642962932587,46.3407092816797
181900,-0.342228621244431,46.2584743075747
182010,-0.34160715341568,46.3818267687322
182120,-0.342228621244431,46.1351218464171
182230,-0.342642962932587,46.052880956978
182340,-0.34305727481842,45.9295284958205
182450,-0.342228621244431,45.8061760346629
182560,-0.34243580698967,45.6005826840663
182670,-0.342228621244431,45.6005826840663
182780,-0.342228621244431,45.6828235735054
182880,-0.34305727481842,45.6828235735054
182990,-0.341399997472763,45.8061760346629
183100,-0.341814309358597,45.970651898207
183210,-0.341814309358597,45.9295344111545
183320,-0.34243580698967,45.7650585476104
183430,-0.342850118875504,45.8472935217154
183540,-0.342021465301514,45.6828235735054
183650,-0.343264430761337,45.4772302229087
183760,-0.34388592839241,45.1482784958205
183870,-0.340985685586929,45.3538659310831
183980,-0.341814309358597,45.3127484440305
184090,-0.342228621244431,45.2305134699255
184190,-0.342021465301514,45.189395982873
184300,-0.341814309358597,45.189395982873
184410,-0.342850118875504,45.0249201193288
184520,-0.341399997472763,45.2305134699255
184630,-0.342021465301514,45.189395982873
184740,-0.342642962932587,45.1482784958205
184850,-0.341399997472763,45.189395982873
184960,-0.341814309358597,45.3949893334696
185070,-0.342228621244431,45.3949893334696
185180,-0.342228621244431,45.6828176581713
185290,-0.342021465301514,45.6417001711188
185400,-0.34243580698967,45.6005767687322
185510,-0.342642962932587,45.5594592816797
185610,-0.34160715341568,45.3538659310831
185720,-0.340571343898773,45.3949834181356
185830,-0.34243580698967,45.4772183922406
185940,-0.342228621244431,45.3949834181356
186050,-0.341814309358597,45.4772183922406
186160,-0.342642962932587,45.353860015749
186270,-0.341814309358597,45.6005708533981
186380,-0.342228621244431,45.5183358792931
186490,-0.34160715341568,45.5183358792931
186600,-0.340571343898773,45.8472816910473
186710,-0.341192841529846,46.217344989854
186820,-0.343264430761337,45.8883991780998
186920,-0.342228621244431,45.8472816910473
187030,-0.342228621244431,45.8884050934339
187140,-0.341814309358597,45.9706400675389
187250,-0.34243580698967,45.8472816910473
187360,-0.341192841529846,46.0939925286965
187470,-0.34160715341568,46.052875041644
187580,-0.342021465301514,45.7239292298898
187690,-0.341814309358597,45.8472876063814
187800,-0.342228621244431,45.7650526322763
187910,-0.341814309358597,45.8884110087679
188020,-0.34160715341568,46.0940043593646
188130,-0.342228621244431,46.0528868723121
188240,-0.342850118875504,46.1762393334696
188340,-0.342228621244431,46.2584802229087
188450,-0.341814309358597,46.2995977099612
188560,-0.342228621244431,46.0528927876461
188670,-0.343264430761337,45.6417120017869
188780,-0.341814309358597,45.8473053523836
188890,-0.34243580698967,45.7650644629445
189000,-0.342228621244431,45.7650644629445
189110,-0.34160715341568,45.9295403264886
189220,-0.342850118875504,45.7650644629445
189330,-0.342228621244431,45.6417120017869
189440,-0.341399997472763,45.8473053523836
189550,-0.34243580698967,45.7650644629445
189650,-0.342021465301514,45.9706578135411
189760,-0.342021465301514,0
189870,-0.340985685586929,0
189980,-0.341814309358597,0
190090,-0.34160715341568,0
190200,-0.341399997472763,0
190310,-0.340985685586929,0
190420,-0.34305727481842,47.969105159615
190530,-0.34243580698967,47.7347222921552
190640,-0.342228621244431,47.5784745400009
190750,-0.34160715341568,47.7347222921552
190860,-0.342021465301514,47.3441029117694
190970,-0.34243580698967,47.1878439203867
191070,-0.342642962932587,46.9534610529269
191180,-0.342228621244431,47.0315961682324
191290,-0.341814309358597,47.0315961682324
191400,-0.342228621244431,47.0315961682324
191510,-0.342021465301514,46.9534722921552
191620,-0.343678742647171,58.8943657734275
191730,-0.34160715341568,58.7140793070249
191840,-0.342021465301514,58.7140793070249
191950,-0.342021465301514,58.7140793070249
192060,-0.341814309358597,58.6539838182241
192170,-0.342642962932587,58.3534977286309
192280,-0.34243580698967,58.2332981054402
192380,-0.342228621244431,58.4736887062326
192490,-0.34160715341568,58.29340223983
192600,-0.34243580698967,58.1732026166394
192710,-0.34160715341568,58.2332981054402
192820,-0.34243580698967,58.1731939710504
192930,-0.342021465301514,58.2933935942411
193040,-0.340571343898773,51.1976164558297
193150,-0.340985685586929,51.301781124421
193260,-0.342850118875504,51.3538634587166
193370,-0.341814309358597,51.1976164558297
193480,-0.341814309358597,51.3538709514995
193590,-0.342850118875504,50.9372047843517
193700,-0.342021465301514,50.9372047843517
193800,-0.34243580698967,50.7809502886819
193910,-0.341814309358597,50.6767856200907
194020,-0.342850118875504,50.2080371186473
194130,-0.342228621244431,50.1038724500561
194240,-0.34243580698967,50.0517826229775
194350,-0.342021465301514,50.3642841215341
194460,-0.34305727481842,50.2080371186473
194570,-0.34077849984169,50.6247107785781
194680,-0.341814309358597,50.7288754471693
194790,-0.341814309358597,50.9892946114303
194900,-0.34243580698967,50.9372047843517
195010,-0.34243580698967,50.7809502886819
195110,-0.342642962932587,50.7288679543863
195220,-0.343264430761337,50.2601194529429
195330,-0.342228621244431,50.2080371186473
195440,-0.342850118875504,49.9997002886819
195550,-0.34243580698967,49.9997002886819
195660,-0.342642962932587,49.8955281273078
195770,-0.342228621244431,49.9997002886819
195880,-0.342021465301514,50.0517826229775
195990,-0.342228621244431,49.8955356200907
196100,-0.342642962932587,49.7913634587166
196210,-0.341192841529846,50.1559472915688
196320,-0.342228621244431,50.3642841215341
196430,-0.343264430761337,50.1038649572732
196530,-0.34077849984169,50.5205386172039
196640,-0.342021465301514,50.5726209514995
196750,-0.34160715341568,50.7288679543863
196860,-0.342850118875504,50.7809502886819
196970,-0.342642962932587,50.4684487901254
197080,-0.34160715341568,50.520531124421
197190,-0.34160715341568,50.5726134587166
197300,-0.342850118875504,50.4684487901254
197410,-0.342228621244431,50.6247032857951
197520,-0.341399997472763,50.7809502886819
197630,-0.342228621244431,51.0413694529429
197740,-0.342021465301514,51.5101254471693
197840,-0.342228621244431,51.1976314413957
197950,-0.34243580698967,51.0413769457259
198060,-0.341399997472763,51.2497062829083
198170,-0.341814309358597,51.3017886172039
198280,-0.342642962932587,51.0934517872385
198390,-0.341399997472763,51.4580356200907
198500,-0.342850118875504,51.0934517872385
198610,-0.341399997472763,51.2496987901254
198720,-0.340364187955856,51.8226194529429
198830,-0.342642962932587,51.5101179543863
198940,-0.342021465301514,51.4580356200907
199050,-0.34243580698967,51.4059457930122
199160,-0.341814309358597,51.5101104616034
199260,-0.34243580698967,51.4059383002292
199370,-0.341399997472763,51.6663574644902
199480,-0.342228621244431,51.7705296258644
199590,-0.342850118875504,51.4580281273078
199700,-0.341192841529846,51.301773631638
199810,-0.34243580698967,51.301773631638
199920,-0.341814309358597,51.4059383002292
200030,-0.341814309358597,51.4059383002292
200140,-0.34160715341568,51.6663574644902
200250,-0.344300240278244,51.041354467377
200360,-0.341399997472763,51.2496838045595
200470,-0.342021465301514,51.1455191359682
200570,-0.341399997472763,50.9371823060029
200680,-0.34243580698967,50.6246808074463
200790,-0.341814309358597,50.9892646402985
200900,-0.34305727481842,50.7809278103331
201010,-0.342228621244431,50.7809278103331
201120,-0.342021465301514,50.7288454760375
201230,-0.342228621244431,50.780935303116
201340,-0.34305727481842,50.3121868016726
201450,-0.342228621244431,50.1559397987858
201560,-0.342228621244431,50.1038574644902
201670,-0.341192841529846,50.260104467377
201780,-0.341814309358597,50.3642691359682
201890,-0.34243580698967,50.2080146402985
201990,-0.34243580698967,49.9996778103331
202100,-0.342228621244431,49.9996778103331
202210,-0.341814309358597,50.2600969745941
202320,-0.34160715341568,50.4163439774809
202430,-0.342228621244431,50.3121793088897
202540,-0.34305727481842,50.1038424789243
202650,-0.342642962932587,50.2600894818111
202760,-0.341814309358597,50.2600894818111
202870,-0.342850118875504,50.1559248132199
202980,-0.342021465301514,50.2080071475155
203090,-0.342228621244431,50.0517601446287
203200,-0.342021465301514,50.2600969745941
203300,-0.342642962932587,50.1559248132199
203410,-0.34243580698967,49.8955056489589
203520,-0.341814309358597,50.0517601446287
203630,-0.341399997472763,50.2080071475155
203740,-0.341192841529846,50.4163364846979
203850,-0.342228621244431,50.1038424789243
203960,-0.342021465301514,50.0517601446287
204070,-0.342021465301514,49.9475954760375
204180,-0.341399997472763,49.9475954760375
204290,-0.342642962932587,49.5309293088897
204400,-0.342228621244431,49.7392661388551
204510,-0.341814309358597,49.8955206345248
204620,-0.34243580698967,49.8434308074463
204720,-0.34243580698967,49.6350939774809
204830,-0.342642962932587,49.4788394818111
204940,-0.34160715341568,49.6871763117765
205050,-0.343264430761337,49.5309293088897
205160,-0.341399997472763,49.7392586460721
205270,-0.341814309358597,49.7392586460721
205380,-0.34305727481842,49.5309218161067
205490,-0.342850118875504,49.3225849861414
205600,-0.34243580698967,49.635078991915
205710,-0.341814309358597,49.5829966576194
205820,-0.341399997472763,49.7392436605062
205930,-0.34305727481842,49.4788244962452
206030,-0.34305727481842,49.1663229976886
206140,-0.342021465301514,49.3225774933584
206250,-0.34160715341568,49.5309143233238
206360,-0.34160715341568,49.6871613262106
206470,-0.342228621244431,49.5309143233238
206580,-0.341399997472763,49.7913334875848
206690,-0.341399997472763,49.8434158218804
206800,-0.342642962932587,49.7913334875848
206910,-0.34243580698967,49.6871613262106
207020,-0.34243580698967,49.2184053319842
207130,-0.342228621244431,48.9059113262106
207240,-0.341814309358597,49.1663304904716
207350,-0.341399997472763,49.2704951590628
207450,-0.342228621244431,49.1663304904716
207560,-0.342228621244431,49.3225849861414
207670,-0.342642962932587,49.1663304904716
207780,-0.342021465301514,49.2705026518457
207890,-0.340571343898773,49.5830041504023
208000,-0.34243580698967,49.6871688189935
208110,-0.34243580698967,49.635078991915
208220,-0.343471586704254,49.374667320437
208330,-0.342021465301514,49.374667320437
208440,-0.34160715341568,49.7392511532892
208550,-0.341192841529846,49.635078991915
208660,-0.342228621244431,49.5309143233238
208760,-0.342021465301514,49.4788319890282
208870,-0.34160715341568,49.6871688189935
208980,-0.342850118875504,49.5830041504023
209090,-0.341814309358597,49.7913409803677
209200,-0.341814309358597,50.1559248132199
209310,-0.342642962932587,50.0517526518457
209420,-0.341192841529846,50.4684188189935
209530,-0.341399997472763,50.7288379832545
209640,-0.340985685586929,51.1455041504023
209750,-0.34243580698967,51.0934143233238
209860,-0.34160715341568,51.197578991915
209970,-0.34160715341568,51.3538259948018
210080,-0.342021465301514,51.5100804904716
210180,-0.342850118875504,51.0934143233238
210290,-0.34243580698967,51.0413244962452
210400,-0.342021465301514,51.3538259948018
210510,-0.342228621244431,50.9892421619496
210620,-0.342021465301514,50.9892421619496
210730,-0.342642962932587,50.7288229976886
210840,-0.34243580698967,50.8329876662798
210950,-0.342021465301514,50.9892421619496
211060,-0.340985685586929,51.1454891648364
211170,-0.342850118875504,50.8329876662798
211280,-0.34160715341568,51.1454891648364
211390,-0.342228621244431,51.1454891648364
211490,-0.342228621244431,50.937159827654
211600,-0.343264430761337,50.676740663393
211710,-0.34243580698967,50.5725685020189
211820,-0.342021465301514,50.6246508363145
211930,-0.342642962932587,50.5725685020189
212040,-0.342228621244431,50.3642391648364
212150,-0.343264430761337,49.9996553319842
212260,-0.34160715341568,50.2600744962452
212370,-0.342021465301514,50.1038274933584
212480,-0.34305727481842,50.0517451590628
212590,-0.342228621244431,49.8434158218804
212700,-0.34243580698967,49.3225774933584
212810,-0.342021465301514,49.4788319890282
212910,-0.343264430761337,49.1663304904716
213020,-0.341814309358597,49.3225849861414
213130,-0.341192841529846,49.4788319890282
213240,-0.342228621244431,49.5309218161067
213350,-0.341192841529846,49.5830041504023
213460,-0.34160715341568,49.7392511532892
213570,-0.343264430761337,49.6350864846979
213680,-0.342021465301514,49.4267571475155
213790,-0.341399997472763,49.6871763117765
213900,-0.342228621244431,49.5830116431853
214010,-0.342228621244431,49.4788469745941
214120,-0.341399997472763,49.5309293088897
214220,-0.341814309358597,50.1559323060029
214330,-0.343264430761337,49.6871838045594
214440,-0.34160715341568,49.7913484731507
214550,-0.34160715341568,49.7392661388551
214660,-0.341192841529846,50.0517676374117
214770,-0.34160715341568,50.1038499717072
214880,-0.341814309358597,50.4163514702638
214990,-0.342021465301514,50.4684338045595
215100,-0.341399997472763,50.6246808074463
215210,-0.342228621244431,50.6246808074463
215320,-0.342850118875504,50.6767631417419
215430,-0.342021465301514,50.7288454760375
215540,-0.342642962932587,50.6246733146633
215640,-0.34305727481842,50.1559248132199
215750,-0.342021465301514,50.1038424789243
215860,-0.341814309358597,50.2600969745941
215970,-0.342228621244431,50.3121868016726
216080,-0.34243580698967,50.2600969745941
216190,-0.342642962932587,50.0517601446287
216300,-0.34243580698967,49.8434233146633
216410,-0.342228621244431,49.8434233146633
216520,-0.34160715341568,50.2080071475155
216630,-0.342850118875504,50.1559248132199
216740,-0.341814309358597,50.1559248132199
216850,-0.342021465301514,50.3642616431853
216950,-0.341814309358597,50.4163439774809
217060,-0.343264430761337,50.1559248132199
217170,-0.342642962932587,49.9996703175501
217280,-0.342021465301514,50.1559248132199
217390,-0.340985685586929,50.5205086460721
217500,-0.342642962932587,50.3121718161067
217610,-0.342642962932587,49.9996703175501
217720,-0.342642962932587,49.6350864846979
217830,-0.34160715341568,49.7913334875848
217940,-0.340571343898773,50.155917320437
218050,-0.342021465301514,50.155917320437
218160,-0.34160715341568,50.1038349861414
218270,-0.34160715341568,50.3642541504023
218370,-0.342642962932587,50.2600819890282
218480,-0.34243580698967,50.1038274933584
218590,-0.342642962932587,50.0517451590628
218700,-0.342021465301514,50.155917320437
218810,-0.342021465301514,50.3121718161067
218920,-0.34243580698967,50.1038349861414
219030,-0.341814309358597,50.4684188189935
219140,-0.343264430761337,49.9996703175501
219250,-0.342021465301514,49.9475879832545
219360,-0.342850118875504,49.9996703175501
219470,-0.34243580698967,50.1038349861414
219580,-0.342228621244431,50.1559248132199
219680,-0.342021465301514,50.1038424789243
219790,-0.341814309358597,49.9996778103331
219900,-0.342021465301514,50.2600969745941
220010,-0.34160715341568,50.6246808074463
220120,-0.342228621244431,50.5725984731507
220230,-0.341814309358597,50.5205161388551
220340,-0.342642962932587,50.2600969745941
220450,-0.341814309358597,50.3642616431853
220560,-0.34243580698967,50.1038424789243
220670,-0.342228621244431,49.8955131417419
220780,-0.342021465301514,50.0517676374117
220890,-0.34243580698967,50.0517676374117
221000,-0.34243580698967,50.0517676374117
221100,-0.341399997472763,50.2600969745941
221210,-0.34243580698967,50.1038424789243
221320,-0.341399997472763,50.1038424789243
221430,-0.340985685586929,50.4163364846979
221540,-0.342021465301514,50.4684188189935
221650,-0.34243580698967,50.5205011532892
221760,-0.342228621244431,50.4684188189935
221870,-0.342228621244431,50.0517526518457
221980,-0.342021465301514,50.1559248132199
222090,-0.342021465301514,50.2600969745941
222200,-0.34077849984169,50.9371823060029
222310,-0.342228621244431,50.8850999717072
222410,-0.34243580698967,50.6767631417419
222520,-0.342021465301514,50.4684338045595
222630,-0.341814309358597,50.5725984731507
222740,-0.34243580698967,50.4684263117765
222850,-0.342850118875504,50.1559248132199
222960,-0.34243580698967,50.2600894818111
223070,-0.342021465301514,50.2080071475155
223180,-0.341399997472763,50.3121718161067
223290,-0.342850118875504,50.2600894818111
223400,-0.341399997472763,50.2080071475155
223510,-0.34243580698967,49.9475879832545
223620,-0.34243580698967,49.5830041504023
223730,-0.342642962932587,49.5309218161067
223830,-0.34160715341568,49.5309218161067
223940,-0.342021465301514,49.4267571475155
224050,-0.341192841529846,49.6350864846979
224160,-0.34077849984169,50.1559248132199
224270,-0.342228621244431,50.2080146402985
224380,-0.34243580698967,50.1038424789243
224490,-0.342642962932587,49.9996703175501
224600,-0.34160715341568,50.1038349861414
224710,-0.34243580698967,50.155917320437
224820,-0.34160715341568,50.3642541504023
224930,-0.342021465301514,50.3642541504023
225040,-0.34243580698967,49.9996703175501
225140,-0.34243580698967,50.1038349861414
225250,-0.34243580698967,49.895498156176
225360,-0.34160715341568,50.0517451590628
225470,-0.34160715341568,50.2079921619496
225580,-0.342850118875504,50.3121568305408
225690,-0.342228621244431,50.3642466576194
225800,-0.34160715341568,50.4684113262106
225910,-0.342850118875504,50.416328991915
226020,-0.34243580698967,50.3642391648364
226130,-0.340985685586929,50.9371523348711
226240,-0.342021465301514,50.8329876662798
226350,-0.342850118875504,50.6246508363145
226460,-0.342021465301514,50.8850700005755
226560,-0.34160715341568,51.0413170034623
226670,-0.34243580698967,51.0413170034623
226780,-0.342021465301514,51.0413170034623
226890,-0.34243580698967,51.2496463406447
227000,-0.342228621244431,51.1454816720535
227110,-0.34243580698967,50.8329801734969
227220,-0.34243580698967,50.7808903464183
227330,-0.34160715341568,50.6767256778271
227440,-0.341814309358597,50.6246433435315
227550,-0.341814309358597,50.9892271763837
227660,-0.342850118875504,50.7808903464183
227770,-0.34243580698967,50.5204711821573
227870,-0.342642962932587,50.4162990207832
227980,-0.34305727481842,50.2079621908178
228090,-0.34160715341568,50.1558798565222
228200,-0.34243580698967,49.9996253608524
228310,-0.34160715341568,50.4162915280002
228420,-0.341814309358597,50.3642091937046
228530,-0.341814309358597,50.312126859409
228640,-0.34160715341568,50.2079621908178
228750,-0.342642962932587,49.9475430265568
228860,-0.34243580698967,49.7912885308871
228970,-0.340985685586929,50.0517002023651
229080,-0.34160715341568,49.9996178680695
229190,-0.341399997472763,50.2079472052519
229290,-0.34243580698967,50.3121118738431
229400,-0.34388592839241,49.8433558796168
229510,-0.34160715341568,50.1037750438777
229620,-0.34243580698967,50.2600220467646
229730,-0.342642962932587,50.1037675510948
229840,-0.342228621244431,49.9996028825036
229950,-0.340571343898773,50.4162690496514
230060,-0.342228621244431,50.4683588767299
230170,-0.34160715341568,50.7287780409909
230280,-0.341399997472763,50.9891972052519
230390,-0.342850118875504,50.8329427095821
230500,-0.342850118875504,50.5204412110255
230610,-0.342850118875504,50.5204412110255
230710,-0.341399997472763,50.6246058796168
230820,-0.342228621244431,50.5725235453211
230930,-0.34243580698967,50.4162690496514
231040,-0.342021465301514,50.728770548208
231150,-0.342850118875504,50.6766882139124
231260,-0.34243580698967,50.5725160525382
231370,-0.342850118875504,50.1037675510948
231480,-0.340985685586929,50.5204337182426
231590,-0.343471586704254,50.3121043810602
231700,-0.341399997472763,50.6246058796168
231810,-0.340571343898773,50.8850250438777
231920,-0.342850118875504,50.3121043810602
232020,-0.34243580698967,50.207932219686
232130,-0.342021465301514,50.1037675510948
232240,-0.34243580698967,49.8954307211294
232350,-0.343264430761337,49.7391837182426
232460,-0.34160715341568,49.947520548208
232570,-0.341192841529846,50.3121043810602
232680,-0.341399997472763,50.468351383947
232790,-0.342228621244431,50.4162690496514
232900,-0.341814309358597,50.5725235453211
233010,-0.342228621244431,50.4683588767299
233120,-0.34243580698967,50.6766882139124
233230,-0.342850118875504,50.468351383947
233340,-0.343471586704254,50.3121043810602
233440,-0.341814309358597,50.4683588767299
233550,-0.340985685586929,50.7808528825036
233660,-0.34305727481842,50.5204337182426
233770,-0.341814309358597,50.5204337182426
233880,-0.342642962932587,50.3641792225728
233990,-0.342850118875504,50.0516777240162
234100,-0.341192841529846,50.3120893954943
234210,-0.340985685586929,50.5204187326767
234320,-0.343264430761337,50.3641717297899
234430,-0.34305727481842,50.0516702312333
234540,-0.341192841529846,50.3641717297899
234650,-0.342850118875504,50.2079172341201
234750,-0.342642962932587,50.0516627384503
234860,-0.342021465301514,50.1558348998245
234970,-0.341814309358597,50.3120893954943
235080,-0.342228621244431,50.1037600583118
235190,-0.342850118875504,49.9995953897206
235300,-0.34243580698967,49.7391762254596
235410,-0.34243580698967,49.3745923926074
235520,-0.342850118875504,49.1662555626421
235630,-0.341192841529846,49.4787570611987
235740,-0.34077849984169,49.8433408940509
235850,-0.342642962932587,49.7391687326767
235960,-0.34305727481842,49.4787495684157
236070,-0.34160715341568,49.5829142370069
236170,-0.340364187955856,49.6870789055981
236280,-0.343471586704254,49.3745774070415
236390,-0.34243580698967,49.3745774070415
236500,-0.342228621244431,49.3224950727459
236610,-0.341192841529846,49.4787420756327
236720,-0.34160715341568,49.6870789055981
236830,-0.342228621244431,49.8433334012679
236940,-0.342021465301514,49.9475055626421
237050,-0.342021465301514,49.9475055626421
237160,-0.341814309358597,49.8433408940509
237270,-0.342021465301514,50.0516777240162
237380,-0.342228621244431,49.8433483868338
237480,-0.342642962932587,49.7912660525382
237590,-0.342228621244431,49.8433558796168
237700,-0.342021465301514,49.9996103752865
237810,-0.343264430761337,49.5829442081387
237920,-0.34243580698967,49.4787720467646
238030,-0.34160715341568,49.3746073781733
238140,-0.34305727481842,48.8016867153558
238250,-0.342228621244431,48.8016867153558
238360,-0.340985685586929,49.166270548208
238470,-0.34305727481842,49.0621058796168
238580,-0.34243580698967,48.8537690496514
238690,-0.342021465301514,48.9579412110255
238800,-0.34243580698967,48.7496043810602
238900,-0.342642962932587,48.5933498853904
239010,-0.341814309358597,48.7496043810602
239120,-0.340985685586929,49.1141882139124
239230,-0.34243580698967,49.1141882139124
239340,-0.34305727481842,48.7496043810602
239450,-0.341399997472763,48.8016867153558
239560,-0.341192841529846,49.2183528825036
239670,-0.34243580698967,49.166263055425
239780,-0.342850118875504,48.8537615568684
239890,-0.341192841529846,49.2704277240162
240000,-0.342228621244431,49.3225175510948
240110,-0.342850118875504,48.8537690496514
240210,-0.342228621244431,48.8016867153558
240320,-0.342228621244431,48.9579412110255
240430,-0.34243580698967,48.8537690496514
240540,-0.341814309358597,48.8016867153558
240650,-0.34243580698967,48.8016867153558
240760,-0.34160715341568,48.905851383947
240870,-0.342850118875504,48.8016867153558
240980,-0.343471586704254,48.4891852167992
241090,-0.342021465301514,48.5933573781733
241200,-0.342642962932587,48.5412750438777
241310,-0.342642962932587,48.2808558796168
241420,-0.343678742647171,47.8121073781733
241530,-0.341192841529846,47.9683543810602
241630,-0.340571343898773,48.5412750438777
241740,-0.343264430761337,48.3329457066953
241850,-0.34160715341568,48.5933648709563
241960,-0.34077849984169,49.1662855337739
242070,-0.342021465301514,49.0621208651827
242180,-0.341814309358597,49.2183753608524
242290,-0.340571343898773,49.4787945251134
242400,-0.34160715341568,49.530876859409
242510,-0.341814309358597,49.530876859409
242620,-0.34160715341568,49.530876859409
242730,-0.34160715341568,49.79129602367
242840,-0.34243580698967,49.79129602367
242940,-0.34160715341568,49.6350490207832
243050,-0.34243580698967,49.4267121908178
243160,-0.34243580698967,49.1662930265568
243270,-0.34243580698967,49.1662930265568
243380,-0.342228621244431,49.5829666864876
243490,-0.342021465301514,49.4788020178964
243600,-0.342021465301514,49.5829741792705
243710,-0.342021465301514,49.7392286749403
243820,-0.34305727481842,49.5308918449749
243930,-0.34160715341568,49.2704726807139
244040,-0.341399997472763,49.4788020178964
244150,-0.34243580698967,49.270465187931
244260,-0.341192841529846,49.3225475222266
244360,-0.340571343898773,49.8954681850442
244470,-0.34305727481842,49.8433858507486
244580,-0.342021465301514,50.0517226807139
244690,-0.341814309358597,49.9475580121227
244800,-0.342021465301514,49.9996403464183
244910,-0.342021465301514,50.1038125077925
245020,-0.341814309358597,50.1558948420881
245130,-0.341399997472763,50.5204786749403
245240,-0.341814309358597,50.6767331706101
245350,-0.341399997472763,51.0413170034623
245460,-0.342021465301514,50.7809053319842
245570,-0.343264430761337,50.8329876662798
245670,-0.342850118875504,50.4684038334276
245780,-0.341192841529846,50.3121493377579
245890,-0.342021465301514,50.5204861677232
246000,-0.342850118875504,50.416321499132
246110,-0.341814309358597,50.4684038334276
246220,-0.342850118875504,50.3642391648364
246330,-0.343264430761337,50.3642391648364
246440,-0.341814309358597,50.3121568305408
246550,-0.342642962932587,49.9475729976886
246660,-0.342228621244431,49.7392436605062
246770,-0.341399997472763,49.9475729976886
246880,-0.341399997472763,50.0517376662798
246990,-0.34160715341568,50.2079846691667
247090,-0.34388592839241,49.8434008363145
247200,-0.34160715341568,50.1559023348711
247310,-0.340364187955856,50.9371523348711
247420,-0.341399997472763,51.0413170034623
247530,-0.342642962932587,50.6246508363145
247640,-0.343264430761337,50.5725685020189
247750,-0.341399997472763,50.6767331706101
247860,-0.343471586704254,50.4684038334276
247970,-0.342228621244431,50.6246583290974
248080,-0.341814309358597,50.4684113262106
248190,-0.34077849984169,50.5205011532892
248300,-0.34305727481842,50.5725834875848
248400,-0.34243580698967,50.7288304904716
248510,-0.341192841529846,50.7288304904716
248620,-0.34160715341568,51.0413319890282
248730,-0.342642962932587,51.0413319890282
248840,-0.341814309358597,51.0934143233238
248950,-0.341399997472763,51.197578991915
249060,-0.34243580698967,51.1454891648364
249170,-0.34305727481842,51.0934068305408
249280,-0.341814309358597,51.2496613262106
249390,-0.341192841529846,51.5621628247672
249500,-0.34388592839241,51.3017436605062
249610,-0.34243580698967,50.9892421619496
249720,-0.341814309358597,50.7288229976886
249820,-0.341814309358597,50.937159827654
249930,-0.343264430761337,50.8850774933584
250040,-0.342850118875504,50.5725759948018
250150,-0.340157032012939,50.6246583290974
250260,-0.342850118875504,50.7809053319842
250370,-0.34160715341568,50.9892421619496
250480,-0.342228621244431,50.9892421619496
250590,-0.339742720127106,51.3538259948018
250700,-0.34243580698967,51.1454891648364
250810,-0.344093084335327,50.6767331706101
250920,-0.342021465301514,50.6767331706101
251030,-0.34160715341568,50.7808978392013
251130,-0.342642962932587,50.5725610092359
251240,-0.342021465301514,50.5725610092359
251350,-0.342021465301514,50.6246433435315
251460,-0.341814309358597,50.8329801734969
251570,-0.341814309358597,50.9371448420881
251680,-0.341192841529846,51.1454741792705
251790,-0.342021465301514,51.4579756778271
251900,-0.342642962932587,51.4058933435315
252010,-0.341814309358597,51.3538110092359
252120,-0.342642962932587,51.4579756778271
252230,-0.341814309358597,51.5621403464183
252340,-0.340985685586929,51.5621403464183
252450,-0.342021465301514,51.8225595106793
252550,-0.341399997472763,52.0829786749403
252660,-0.342228621244431,52.0308963406447
252770,-0.342228621244431,52.0829861677232
252880,-0.34160715341568,52.3434053319842
252990,-0.342021465301514,52.2913229976886
253100,-0.342228621244431,51.978828991915
253210,-0.342850118875504,51.8746643233238
253320,-0.34305727481842,51.8746643233238
253430,-0.341814309358597,51.7704996547326
253540,-0.34243580698967,51.457998156176
253650,-0.341192841529846,51.7704996547326
253760,-0.341399997472763,52.1350834875848
253860,-0.34160715341568,52.0309188189935
253970,-0.341192841529846,52.2913304904716
254080,-0.342021465301514,52.499667320437
254190,-0.342228621244431,52.499667320437
254300,-0.342850118875504,52.3434128247672
254410,-0.340364187955856,52.8642511532892
254520,-0.34160715341568,52.9163334875848
254630,-0.341399997472763,53.1767526518457
254740,-0.341399997472763,53.2288349861414
254850,-0.342642962932587,53.280917320437
254960,-0.342850118875504,53.4371643233238
255070,-0.341814309358597,53.4892466576194
255180,-0.341814309358597,53.6975834875848
255280,-0.341814309358597,53.9059203175501
255390,-0.341814309358597,54.3746688189935
255500,-0.342021465301514,54.1663394818111
255610,-0.342228621244431,53.7496733146633
255720,-0.342021465301514,54.0621748132199
255830,-0.342228621244431,53.9059278103331
255940,-0.340985685586929,53.8538379832545
256050,-0.342642962932587,53.6975834875848
256160,-0.342228621244431,53.5934188189935
256270,-0.34077849984169,53.5413364846979
256380,-0.342228621244431,53.3850894818111
256490,-0.342850118875504,53.1246703175501
256590,-0.34160715341568,53.1246703175501
256700,-0.34243580698967,52.9163334875848
256810,-0.34305727481842,52.7600864846979
256920,-0.342021465301514,52.6559218161067
257030,-0.342228621244431,52.7080116431853
257140,-0.340985685586929,53.0725954760375
257250,-0.341399997472763,53.3330146402985
257360,-0.342021465301514,53.3850969745941
257470,-0.34243580698967,53.2809248132199
257580,-0.34077849984169,53.5934263117765
257690,-0.341814309358597,53.6455086460721
257800,-0.34160715341568,54.0100924789243
257910,-0.34305727481842,53.6455086460721
258010,-0.342021465301514,53.4892616431853
258120,-0.34077849984169,53.905935303116
258230,-0.34243580698967,53.5934338045595
258340,-0.34305727481842,52.9684308074463
258450,-0.342021465301514,53.2288499717072
258560,-0.343264430761337,52.9163484731507
258670,-0.341399997472763,53.0205131417419
258780,-0.342021465301514,53.0205131417419
258890,-0.341192841529846,53.2288424789243
259000,-0.342021465301514,53.1767601446287
259110,-0.342021465301514,53.0205131417419
259220,-0.342228621244431,52.9163484731507
259320,-0.34243580698967,52.6559293088897
259430,-0.340985685586929,52.9163409803677
259540,-0.34243580698967,53.1246703175501
259650,-0.342850118875504,53.1246703175501
259760,-0.340985685586929,53.1767526518457
259870,-0.34243580698967,53.0725804904716
259980,-0.342228621244431,53.2288349861414
260090,-0.342021465301514,53.1767526518457
260200,-0.340985685586929,53.6455011532892
260310,-0.34243580698967,53.8538304904716
260420,-0.342021465301514,53.801748156176
260530,-0.340985685586929,54.2184143233238
260640,-0.34243580698967,54.1663244962452
260740,-0.342021465301514,54.0100774933584
260850,-0.341814309358597,53.9059128247672
260960,-0.342021465301514,53.801748156176
261070,-0.34243580698967,54.1663319890282
261180,-0.34243580698967,53.9579951590628
261290,-0.341399997472763,53.6975759948018
261400,-0.342228621244431,53.4892466576194
261510,-0.34305727481842,53.3850819890282
261620,-0.341399997472763,53.8538304904716
261730,-0.342021465301514,53.6975834875848
261840,-0.342642962932587,53.9059128247672
261950,-0.342850118875504,53.7496583290974
262050,-0.342021465301514,53.6975759948018
262160,-0.341814309358597,53.4371568305408
262270,-0.342642962932587,53.541321499132
262380,-0.34305727481842,53.3850744962452
262490,-0.342228621244431,53.1246628247672
262600,-0.34243580698967,52.9163259948018
262710,-0.342228621244431,53.020498156176
262820,-0.342642962932587,52.8121613262106
262930,-0.342021465301514,52.6559143233238
263040,-0.342642962932587,52.6038319890282
263150,-0.341814309358597,52.9163334875848
263260,-0.342228621244431,52.8121688189935
263370,-0.342642962932587,52.4475849861414
263470,-0.34243580698967,52.8121688189935
263580,-0.34077849984169,53.2288424789243
263690,-0.342021465301514,53.1767601446287
263800,-0.34160715341568,53.2288424789243
263910,-0.343471586704254,53.1767601446287
264020,-0.34077849984169,53.6975984731507
264130,-0.34160715341568,53.3330146402985
264240,-0.34243580698967,53.4371793088897
264350,-0.34243580698967,53.2288424789243
264460,-0.342021465301514,53.2809248132199
264570,-0.342228621244431,52.6559293088897
264680,-0.340985685586929,53.0205131417419
264780,-0.341192841529846,53.7496808074463
264890,-0.342228621244431,53.6975984731507
265000,-0.341814309358597,53.6455161388551
265110,-0.34160715341568,53.905935303116
265220,-0.342021465301514,53.905935303116
265330,-0.34305727481842,53.6455161388551
265440,-0.342228621244431,53.5413514702638
265550,-0.34243580698967,53.3850969745941
265660,-0.341814309358597,53.2288499717072
265770,-0.342228621244431,53.1767676374117
265880,-0.341399997472763,53.4892691359682
265990,-0.341814309358597,53.4892691359682
266100,-0.341814309358597,53.6976059659336
266200,-0.342642962932587,53.4892691359682
266310,-0.342021465301514,53.2288574644902
266420,-0.342021465301514,53.2288574644902
266530,-0.342850118875504,52.864273631638
266640,-0.342850118875504,52.7080191359682
266750,-0.341192841529846,52.9684308074463
266860,-0.342021465301514,52.8642661388551
266970,-0.341399997472763,53.0205131417419
267080,-0.341399997472763,53.2288424789243
267190,-0.342021465301514,53.4371793088897
267300,-0.342021465301514,53.6975984731507
267410,-0.34243580698967,53.5413439774809
267510,-0.342228621244431,53.5934338045595
267620,-0.342228621244431,53.3330221330814
267730,-0.34305727481842,52.9163559659336
267840,-0.341814309358597,52.864273631638
267950,-0.342021465301514,52.6559442944556
268060,-0.34243580698967,52.5517721330814
268170,-0.34160715341568,52.7080191359682
268280,-0.341399997472763,53.0726029688204
268390,-0.34243580698967,52.5517646402985
268500,-0.340985685586929,52.7080116431853
268610,-0.34243580698967,52.4475924789243
268720,-0.342021465301514,52.2913454760375
268830,-0.342228621244431,52.3955176374117
268930,-0.343264430761337,52.2913529688204
269040,-0.339949876070023,52.7601014702638
269150,-0.34243580698967,52.6038469745941
269260,-0.343471586704254,52.1871808074463
269370,-0.342850118875504,51.9267616431853
269480,-0.341399997472763,52.0830086460721
269590,-0.34243580698967,52.0309188189935
269700,-0.343264430761337,51.718417320437
269810,-0.340364187955856,52.1871658218804
269920,-0.342228621244431,51.8746718161067
270030,-0.342850118875504,51.8225894818111
270140,-0.341192841529846,52.0830011532892
270240,-0.341192841529846,51.978828991915
270350,-0.34305727481842,51.7704921619496
270460,-0.342228621244431,51.9267466576194
270570,-0.34160715341568,51.9267466576194
270680,-0.342850118875504,51.8225819890282
270790,-0.342850118875504,51.8746643233238
270900,-0.342021465301514,51.8746643233238
271010,-0.34243580698967,51.8225744962452
271120,-0.34160715341568,51.6663274933584
271230,-0.342642962932587,51.3538259948018
271340,-0.34160715341568,51.457990663393
271450,-0.341399997472763,51.718409827654
271560,-0.342642962932587,51.2496538334276
271660,-0.341399997472763,51.3538185020189
271770,-0.34077849984169,51.5621553319842
271880,-0.34243580698967,51.7184023348711
271990,-0.341814309358597,51.7704846691667
272100,-0.340985685586929,51.7183948420881
272210,-0.34243580698967,51.7183948420881
272320,-0.341399997472763,52.1350610092359
272430,-0.341192841529846,52.3433903464183
272540,-0.341814309358597,52.7079741792705
272650,-0.341192841529846,52.7600565135661
272760,-0.342021465301514,52.7600565135661
272870,-0.34243580698967,52.4475550150095
272970,-0.343471586704254,52.0829711821573
273080,-0.342021465301514,52.0829711821573
273190,-0.34160715341568,52.2392181850442
273300,-0.342021465301514,52.3433903464183
273410,-0.341399997472763,52.2392256778271
273520,-0.342021465301514,52.3433978392013
273630,-0.342642962932587,52.3954801734969
273740,-0.342021465301514,52.1350685020189
273850,-0.34160715341568,52.3434053319842
273960,-0.342228621244431,52.3434053319842
274070,-0.342850118875504,52.1350685020189
274180,-0.34243580698967,51.7704846691667
274290,-0.343678742647171,51.457990663393
274390,-0.343264430761337,51.1454891648364
274500,-0.342021465301514,50.8850774933584
274610,-0.342850118875504,50.7809128247672
274720,-0.342642962932587,50.6246583290974
274830,-0.341814309358597,50.6246583290974
274940,-0.342850118875504,50.416321499132
275050,-0.341399997472763,50.676740663393
275160,-0.34160715341568,50.8850774933584
275270,-0.342021465301514,50.7288304904716
275380,-0.341814309358597,50.8329951590628
275490,-0.34305727481842,50.8329951590628
275600,-0.341399997472763,50.8329951590628
275700,-0.341814309358597,50.8850774933584
275810,-0.34243580698967,50.937159827654
275920,-0.341399997472763,51.3017436605062
276030,-0.34160715341568,51.4059083290974
276140,-0.341814309358597,51.4059083290974
276250,-0.341814309358597,51.6142451590628
276360,-0.340985685586929,52.1350759948018
276470,-0.341399997472763,52.3434053319842
276580,-0.34305727481842,52.1871583290974
276690,-0.341814309358597,52.2913229976886
276800,-0.341399997472763,52.6038244962452
276910,-0.342021465301514,52.6038244962452
277020,-0.342021465301514,52.760078991915
277120,-0.342642962932587,52.5517421619496
277230,-0.342642962932587,52.4475700005755
277340,-0.342850118875504,52.3954876662798
277450,-0.34243580698967,52.3954876662798
277560,-0.34160715341568,52.1871508363145
277670,-0.342021465301514,52.1871508363145
277780,-0.342228621244431,52.0309038334276
277890,-0.342021465301514,52.3954876662798
278000,-0.341399997472763,52.2392331706101
278110,-0.342642962932587,51.9788140063491
278220,-0.341192841529846,52.2913155049057
278330,-0.340985685586929,52.6558993377579
278430,-0.343678742647171,52.2392331706101
278540,-0.34243580698967,52.1871433435315
278650,-0.342642962932587,51.7704771763837
278760,-0.34243580698967,51.4579756778271
278870,-0.342228621244431,51.4579756778271
278980,-0.342021465301514,51.4058933435315
279090,-0.342642962932587,51.1454741792705
279200,-0.34243580698967,51.0413020178964
279310,-0.341192841529846,51.5100505193398
279420,-0.34243580698967,51.4579606922612
279530,-0.342228621244431,51.5100505193398
279640,-0.341814309358597,51.5100505193398
279750,-0.341814309358597,51.614215187931
279850,-0.34243580698967,51.35379602367
279960,-0.34077849984169,51.614215187931
280070,-0.34305727481842,51.3017136893744
280180,-0.342228621244431,51.4058858507486
280290,-0.342228621244431,51.353803516453
280400,-0.342228621244431,51.3017211821573
280510,-0.341399997472763,51.6663050150095
280620,-0.342228621244431,51.8225595106793
280730,-0.341814309358597,51.6663125077925
280840,-0.343471586704254,51.3017286749403
280950,-0.342850118875504,50.9371448420881
281060,-0.343678742647171,50.3642316720535
281160,-0.342021465301514,50.3642316720535
281270,-0.342021465301514,50.3642316720535
281380,-0.341399997472763,50.6246508363145
281490,-0.341399997472763,50.8329801734969
281600,-0.342850118875504,50.6767256778271
281710,-0.34243580698967,50.8329726807139
281820,-0.341814309358597,50.8329726807139
281930,-0.34243580698967,50.7288005193398
282040,-0.340985685586929,51.093384352192
282150,-0.342228621244431,50.9371373493052
282260,-0.342228621244431,50.7288080121227
282370,-0.342228621244431,50.7808978392013
282480,-0.341399997472763,50.6767331706101
282580,-0.34243580698967,50.6767331706101
282690,-0.34305727481842,50.4163140063491
282800,-0.341814309358597,50.5204786749403
282910,-0.342021465301514,50.8329801734969
283020,-0.342228621244431,50.2600670034623
283130,-0.342228621244431,50.3121568305408
283240,-0.34243580698967,50.5725685020189
283350,-0.342228621244431,50.7288229976886
283460,-0.341814309358597,50.6246583290974
283570,-0.34160715341568,50.8329951590628
283680,-0.34243580698967,51.0413244962452
283790,-0.342228621244431,50.5725759948018
283890,-0.34305727481842,50.3642391648364
284000,-0.343264430761337,50.2600744962452
284110,-0.340985685586929,50.3121568305408
284220,-0.34160715341568,50.2079921619496
284330,-0.342021465301514,50.4684113262106
284440,-0.342021465301514,50.5204936605062
284550,-0.34160715341568,50.5204936605062
284660,-0.34305727481842,50.4684113262106
284770,-0.34160715341568,50.7809128247672
284880,-0.34160715341568,50.8850774933584
284990,-0.342021465301514,50.9892496547326
285100,-0.34243580698967,50.7809128247672
285210,-0.340985685586929,51.197578991915
285310,-0.341814309358597,51.1454966576194
285420,-0.342642962932587,50.8329951590628
285530,-0.34243580698967,50.8850774933584
285640,-0.34160715341568,50.8329951590628
285750,-0.340985685586929,50.7809053319842
285860,-0.341399997472763,51.0413244962452
285970,-0.342850118875504,50.7809053319842
286080,-0.34243580698967,50.416321499132
286190,-0.342642962932587,50.3642391648364
286300,-0.342228621244431,50.155909827654
286410,-0.34160715341568,50.0517451590628
286520,-0.340985685586929,50.2600744962452
286620,-0.345336049795151,49.2184053319842
286730,-0.341192841529846,49.4267346691667
286840,-0.340364187955856,49.9475729976886
286950,-0.34243580698967,50.2079846691667
287060,-0.343264430761337,49.8954831706101
287170,-0.342228621244431,49.7392361677232
287280,-0.342021465301514,49.7392361677232
287390,-0.342642962932587,49.4267346691667
287500,-0.342850118875504,49.2183978392013
287610,-0.341399997472763,49.5308993377579
287720,-0.341814309358597,49.5829816720535
287830,-0.342021465301514,49.4788170034623
287940,-0.341399997472763,49.6871463406447
288040,-0.34243580698967,49.7913110092359
288150,-0.342021465301514,49.8954831706101
288260,-0.342850118875504,50.1038125077925
288370,-0.342642962932587,50.2600595106793
288480,-0.34243580698967,50.1558873493052
288590,-0.342642962932587,50.2079696836008
288700,-0.34305727481842,50.1038050150095
288810,-0.34243580698967,49.9475505193398
288920,-0.34243580698967,50.051715187931
289030,-0.341814309358597,49.9475505193398
289140,-0.342228621244431,49.7913035164529
289250,-0.342642962932587,49.6350490207832
289350,-0.34160715341568,49.6871313550788
289460,-0.342228621244431,49.8954681850442
289570,-0.34243580698967,49.6350490207832
289680,-0.343264430761337,49.270465187931
289790,-0.34160715341568,49.4788020178964
289900,-0.341399997472763,49.4788020178964
290010,-0.343264430761337,49.0621358507486
290120,-0.341399997472763,49.1663005193398
290230,-0.341814309358597,49.1663005193398
290340,-0.342228621244431,48.8538065135661
290450,-0.341814309358597,48.7496418449749
290560,-0.341192841529846,49.2183903464183
290670,-0.34243580698967,49.0621358507486
290770,-0.343264430761337,48.5933873493052
290880,-0.341814309358597,48.6454696836008
290990,-0.34243580698967,48.5412975222266
291100,-0.342642962932587,48.5412975222266
291210,-0.342021465301514,48.6975520178964
291320,-0.34243580698967,48.8017166864876
291430,-0.341814309358597,48.9579711821573
291540,-0.342021465301514,48.8538065135661
291650,-0.34160715341568,48.9579711821573
291760,-0.34243580698967,48.9058813550788
291870,-0.343678742647171,48.489215187931
291980,-0.342228621244431,48.2808858507486
292080,-0.341399997472763,48.5933873493052
292190,-0.34305727481842,48.1246388478617
292300,-0.341814309358597,47.9163095106793
292410,-0.341399997472763,48.4892226807139
292520,-0.34077849984169,48.9058963406447
292630,-0.341399997472763,49.2183978392013
292740,-0.342642962932587,49.1663155049057
292850,-0.342228621244431,49.1663155049057
292960,-0.34305727481842,48.9058963406447
293070,-0.342021465301514,49.0621508363145
293180,-0.34243580698967,49.0621508363145
293290,-0.34160715341568,48.9579861677232
293400,-0.342228621244431,49.0100759948018
293500,-0.342228621244431,49.0100759948018
293610,-0.342642962932587,48.8017391648364
293720,-0.340985685586929,49.0100685020189
293830,-0.341399997472763,49.2704876662798
293940,-0.341399997472763,49.1142331706101
294050,-0.342850118875504,49.1663155049057
294160,-0.34160715341568,49.3225625077925
294270,-0.342228621244431,49.3225625077925
294380,-0.342228621244431,49.3225625077925
294490,-0.34160715341568,49.2704801734969
294600,-0.34388592839241,48.8538065135661
294710,-0.342021465301514,48.8017241792705
294810,-0.342228621244431,49.1142256778271
294920,-0.341399997472763,49.4788095106793
295030,-0.342850118875504,49.6871388478617
295140,-0.342642962932587,49.530884352192
295250,-0.34243580698967,49.4267121908178
295360,-0.342228621244431,49.2183828536354
295470,-0.342228621244431,49.0100535164529
295580,-0.342642962932587,49.0621358507486
295690,-0.344093084335327,48.6454696836008
295800,-0.342228621244431,48.5413050150095
295910,-0.342642962932587,48.4892226807139
296020,-0.341399997472763,48.3850580121227
296130,-0.342021465301514,48.4371403464183
296230,-0.34243580698967,48.3850505193398
296340,-0.342021465301514,48.4371328536354
296450,-0.342021465301514,48.2808858507486
296560,-0.34160715341568,48.4892226807139
296670,-0.34305727481842,48.4892226807139
296780,-0.342642962932587,48.2808858507486
296890,-0.34160715341568,48.3850505193398
297000,-0.342228621244431,48.3850505193398
297110,-0.342642962932587,48.2808783579656
297220,-0.342021465301514,48.3850505193398
297330,-0.342228621244431,48.3850505193398
297440,-0.342642962932587,48.1767136893744
297540,-0.34243580698967,47.968376859409
297650,-0.341399997472763,48.22879602367
297760,-0.342642962932587,48.1246238622958
297870,-0.34243580698967,48.2808708651827
297980,-0.340985685586929,48.8537840352173
298090,-0.342021465301514,48.5933723637392
298200,-0.341399997472763,48.6454546980349
298310,-0.342228621244431,48.5933723637392
298420,-0.343264430761337,48.2808708651827
298530,-0.341814309358597,48.2287885308871
298640,-0.342021465301514,48.489207695148
298750,-0.341192841529846,48.5933723637392
298860,-0.34243580698967,48.3850355337739
298960,-0.342850118875504,48.1766987038085
299070,-0.342021465301514,48.2808708651827
299180,-0.342642962932587,47.8642046980349
299290,-0.342021465301514,47.8121223637392
299400,-0.34243580698967,47.8642046980349
299510,-0.342642962932587,47.8121223637392
299620,-0.34160715341568,47.8121223637392
299730,-0.342228621244431,47.4996283579656
299840,-0.34243580698967,47.2392091937046
299950,-0.341399997472763,47.6037930265568
300060,-0.34243580698967,47.6037930265568
300170,-0.341814309358597,47.8121298565222
300270,-0.342228621244431,47.8121298565222
300380,-0.341192841529846,47.9162945251134
300490,-0.340985685586929,47.9162945251134
300600,-0.342642962932587,48.5933798565222
300710,-0.341814309358597,48.4371328536354
300820,-0.342021465301514,48.0204666864876
300930,-0.34243580698967,48.0204666864876
301040,-0.341814309358597,48.3850505193398
301150,-0.343264430761337,48.1246313550788
301260,-0.341814309358597,48.1767136893744
301370,-0.34243580698967,48.22879602367
301480,-0.340985685586929,48.6975445251134
301590,-0.34160715341568,48.6454621908178
301690,-0.342021465301514,48.5933798565222
301800,-0.34243580698967,48.489207695148
301910,-0.341814309358597,48.3850430265568
302020,-0.342642962932587,48.3329606922612
302130,-0.34243580698967,48.2287885308871
302240,-0.341814309358597,48.489207695148
302350,-0.340985685586929,48.9058738622958
302460,-0.34243580698967,48.9058738622958
302570,-0.342850118875504,48.8537915280002
302680,-0.34077849984169,49.4267121908178
302790,-0.34243580698967,49.4267121908178
302900,-0.340571343898773,49.8954681850442
303000,-0.34305727481842,49.5829666864876
303110,-0.342228621244431,49.5829666864876
303220,-0.342228621244431,49.6871388478617
303330,-0.341814309358597,49.6350565135661
303440,-0.341814309358597,49.7392211821573
303550,-0.341814309358597,49.8954756778271
303660,-0.342021465301514,50.2079771763837
303770,-0.342850118875504,49.8954756778271
303880,-0.34243580698967,49.6350565135661
303990,-0.34243580698967,49.8433858507486
304100,-0.34243580698967,49.5829666864876
304210,-0.342021465301514,49.530884352192
304320,-0.342021465301514,49.5829666864876
304420,-0.342021465301514,49.530884352192
304530,-0.34160715341568,49.4267196836008
304640,-0.34243580698967,49.4267196836008
304750,-0.341814309358597,49.7913035164529
304860,-0.342850118875504,49.530884352192
304970,-0.342642962932587,49.4788020178964
305080,-0.341399997472763,49.7913035164529
305190,-0.342021465301514,49.7913035164529
305300,-0.343471586704254,49.5308918449749
305410,-0.341814309358597,49.5308918449749
305520,-0.34243580698967,49.4267196836008
305630,-0.342021465301514,49.3225550150095
305730,-0.342228621244431,49.3746448420881
305840,-0.342850118875504,49.5829741792705
305950,-0.34305727481842,49.3746373493052
306060,-0.34305727481842,48.9579711821573
306170,-0.342228621244431,49.1663080121227
306280,-0.341192841529846,49.3225550150095
306390,-0.34388592839241,48.6975520178964
306500,-0.341399997472763,48.5412975222266
306610,-0.34160715341568,48.489215187931
306720,-0.341192841529846,48.8537990207832
306830,-0.342021465301514,48.9058813550788
306940,-0.34243580698967,49.0621283579656
307050,-0.341814309358597,49.1142106922612
307150,-0.343264430761337,48.9058813550788
307260,-0.342021465301514,48.8017166864876
307370,-0.342850118875504,48.6454621908178
307480,-0.342642962932587,48.5412900294436
307590,-0.340985685586929,48.9579561965914
307700,-0.342228621244431,48.6454621908178
307810,-0.342850118875504,48.2808783579656
307920,-0.341814309358597,48.1767136893744
308030,-0.342228621244431,48.3329681850442
308140,-0.34243580698967,48.1246313550788
308250,-0.342021465301514,48.1767136893744
308360,-0.34243580698967,48.1246238622958
308460,-0.34160715341568,48.1246238622958
308570,-0.341399997472763,48.749626859409
308680,-0.34305727481842,48.489207695148
308790,-0.342850118875504,48.3329531994783
308900,-0.34160715341568,48.2808708651827
309010,-0.342228621244431,48.4371253608524
309120,-0.342021465301514,48.5933798565222
309230,-0.342228621244431,48.6454696836008
309340,-0.342021465301514,48.6975520178964
309450,-0.342021465301514,48.749634352192
309560,-0.342850118875504,48.6975520178964
309670,-0.34243580698967,49.1142181850442
309780,-0.34243580698967,49.0621283579656
309880,-0.341814309358597,49.270465187931
309990,-0.342228621244431,49.0621358507486
310100,-0.342021465301514,49.0621358507486
310210,-0.342228621244431,49.1142256778271
310320,-0.342228621244431,49.0621433435315
310430,-0.341814309358597,49.1142256778271
310540,-0.342228621244431,48.9579786749403
310650,-0.34243580698967,49.1142256778271
310760,-0.342021465301514,49.2704801734969
310870,-0.342021465301514,49.1663155049057
310980,-0.34305727481842,48.9579786749403
311090,-0.34243580698967,49.0100610092359
311200,-0.34243580698967,48.9058888478617
311300,-0.34243580698967,48.8537990207832
311410,-0.34160715341568,49.1142181850442
311520,-0.34160715341568,49.3225550150095
311630,-0.342228621244431,49.1142256778271
311740,-0.34160715341568,49.3746448420881
311850,-0.342021465301514,49.4788170034623
311960,-0.342642962932587,49.0621508363145
312070,-0.342850118875504,48.8538140063491
312180,-0.34243580698967,48.5933948420881
312290,-0.34388592839241,48.1767211821573
312400,-0.34243580698967,48.3850505193398
312510,-0.34243580698967,48.22879602367
312610,-0.34305727481842,47.968376859409
312720,-0.34160715341568,47.8642121908178
312830,-0.34243580698967,47.8642121908178
312940,-0.342021465301514,48.0725490207832
313050,-0.342642962932587,47.9162945251134
313160,-0.342228621244431,48.0204666864876
313270,-0.34243580698967,47.9162945251134
313380,-0.341814309358597,48.0725490207832
313490,-0.34243580698967,48.1246313550788
313600,-0.342228621244431,47.968384352192
313710,-0.34305727481842,47.7600475222266
313820,-0.342021465301514,47.8642196836008
313930,-0.342850118875504,47.4996358507486
314030,-0.342021465301514,47.6038080121227
314140,-0.342850118875504,47.3433888478617
314250,-0.341399997472763,47.5517181850442
314360,-0.341399997472763,47.4996358507486
314470,-0.341814309358597,47.2913065135661
314580,-0.342021465301514,47.4475610092359
314690,-0.341814309358597,47.4475610092359
314800,-0.342850118875504,47.2392241792705
314910,-0.342228621244431,47.2913140063491
315020,-0.341192841529846,47.4475610092359
315130,-0.342228621244431,47.7079801734969
315240,-0.342021465301514,47.6558978392013
315340,-0.342850118875504,47.5517331706101
315450,-0.342642962932587,47.1350670034623
315560,-0.34160715341568,47.1350670034623
315670,-0.342021465301514,47.1350670034623
315780,-0.341814309358597,47.291321499132
315890,-0.341192841529846,47.4475685020189
316000,-0.34243580698967,47.4996508363145
316110,-0.342021465301514,47.6038229976886
316220,-0.342228621244431,47.4996583290974
316330,-0.342021465301514,47.2392466576194
316440,-0.342021465301514,47.3434188189935
316550,-0.341814309358597,47.6038379832545
316660,-0.342228621244431,47.2392541504023
316760,-0.342228621244431,47.2913439774809
316870,-0.342228621244431,46.8746778103331
316980,-0.34243580698967,47.0309248132199
317090,-0.342021465301514,47.0830071475155
317200,-0.34160715341568,47.2392541504023
317310,-0.342021465301514,47.1871718161067
